mean_val,std_val,peak_amp,heart_rate,rr_var,entropy,label
515.2356342652408,14.689560487608274,915.0517324883812,74.28065288933713,20.689319996477693,0.2938214422095158,normal
560.0470854781618,21.750879591393378,995.0493872114818,85.32247783314745,25.23247861187945,0.49003771151493747,stress
566.1743909997543,16.25287372020028,983.7821998736771,83.9174364876629,30.780771698933037,0.5463115551527118,stress
550.3941603820183,15.589041213624785,963.7932046397468,81.15137092833108,27.666704577342507,0.532671809139514,stress
538.0024786820322,14.913676055976529,980.7087937618521,76.09813553682878,19.609227753233313,0.2260161339657894,normal
562.0578310489182,25.32068335611193,940.5406870177477,82.68547456162376,30.187438524793443,0.5115857780953228,stress
530.026135630452,17.523054836497774,984.2745146169977,85.7417615060456,24.974252736617508,0.49014182268065787,stress
534.6425555800163,11.758820960253896,957.0152525473957,74.04517532063329,24.50268249698928,0.3633947814543674,normal
598.3137148874093,42.5549880972525,965.2356576431912,104.5866177049206,48.60478277657366,0.6379902606106841,anxiety
520.7516248697347,10.747115751958447,924.743263915214,65.39641440256429,21.10714197930279,0.3485762987335878,normal
548.3171597773611,18.154778344286903,1016.6691410253413,84.30831813807727,32.809143232127795,0.5383967709405358,stress
530.8508138674379,8.784272315176366,930.0135819669534,71.80695380917545,11.959785157351943,0.38934674578467915,normal
566.8295860137055,28.74630816798099,990.3684787518803,94.39686530607275,24.93233926772914,0.4514394494138794,stress
567.7398644828195,40.63559651857453,956.8370714488619,99.71243095755459,45.97809105929751,0.6775199102027555,anxiety
596.9090586262362,43.19190782221889,975.6005566261964,95.26247320981084,49.990254507083,0.5858496520317327,anxiety
556.5643986002412,25.54213304672466,915.5797930591269,105.72983465793703,45.30017917586194,0.6299582935142067,anxiety
535.6002136727027,9.6175235761165,1001.4114428057027,60.543348424511194,14.013890150919572,0.290258822605851,normal
550.8014078227561,42.82280183587019,907.9477441684858,105.5224865219775,43.05913510502057,0.6993467765011523,anxiety
559.3970338957957,20.878658444158635,1009.5259265768517,87.07474236125893,34.80343918082446,0.5059906193491327,stress
510.0097159265838,8.980792230365168,1014.952283554742,77.64832736814677,10.353924469682937,0.3545619146580675,normal
530.8927356694255,14.071059406718616,917.0016035103959,60.202623680554865,23.99387293854508,0.31268167289677085,normal
525.806911616378,13.581067560456876,930.656653225994,65.97451147177546,13.390434967239996,0.21409838912862894,normal
500.728873026062,14.557808175273305,920.833761760363,61.392822963248115,14.120557225718379,0.3190606531854978,normal
510.9362828772282,10.859172491494892,1023.5904098777692,60.03130210382946,24.772876041437137,0.35185850138369473,normal
521.9493515746634,14.893888392736342,925.5243100445592,60.672272003665654,22.590077385340035,0.23207308122394865,normal
528.8980846104602,10.932478146531835,903.7167251442121,66.99012744173638,19.995781203673097,0.24684067418526684,normal
525.4564164505512,8.362764757756988,1016.0903185342175,60.104592270858255,21.467916919820766,0.34967686993524627,normal
584.5860057067345,33.91035628986322,918.0439198656326,102.50929298500897,48.298931622535974,0.6350287649941142,anxiety
595.4413248858431,40.23779788754968,926.4793139568023,96.87876846644312,36.60543701316557,0.5694070925450052,anxiety
553.1897278126798,30.15263997527058,1010.2360757410186,106.02842777152394,49.661572763060185,0.5510637719161557,anxiety
525.4037460347057,8.958199410481651,999.9430761721196,69.18530394346428,18.67447599130541,0.2541885396632731,normal
538.8712833088384,10.638611005974353,903.80091027352,61.541165582686624,21.533841731614615,0.21369174386671563,normal
538.8201705374258,17.72668300826043,965.1583181121307,85.80060585565967,31.469764255773104,0.4198403072647723,stress
539.4484297791842,10.45087681416711,968.141662450982,66.77721298677503,10.56356635598361,0.3474852171541355,normal
504.03112005509706,12.645698157538536,972.7394494337588,73.72654393372196,11.143588269603468,0.24374312259958547,normal
535.4834569706047,12.876555767138246,976.5259783388997,61.14109442302509,14.264111393912751,0.22051359251671798,normal
545.4929007190126,17.403384014647592,971.7330710204369,91.73638718319182,20.160729465430386,0.48534332249227763,stress
525.3360341726691,8.717568095934755,981.759886353517,66.37733636642278,18.19645474116771,0.28136096019034473,normal
560.0897474126228,25.21026449083307,929.605219614667,99.735027217461,46.97833757195899,0.6314410666733992,anxiety
513.0132132305306,11.995448132682384,972.1644538373855,74.56981354323227,16.026682009814863,0.39028464416911324,normal
516.7840024971116,12.434347538783031,999.5752113312502,77.63855516609289,13.69905452467037,0.22806490363870302,normal
520.9093131752797,10.02041387268179,920.7678402001246,72.31970900520358,18.65918543849697,0.3954013908877887,normal
501.0140297366183,12.369042354943938,1018.4849382984119,63.684496784760526,15.22143389752432,0.3417531310458308,normal
569.9991509146785,34.68346064326815,965.5597076656226,109.3695659972368,37.60945558855008,0.5933725501681226,anxiety
503.4138985997507,8.598559715981276,1007.0533725469063,67.9194094532491,21.593822228141725,0.36076290903868935,normal
525.9985572311106,12.61246759337106,994.5233567123004,69.02478688361975,10.871379281205247,0.29701893199590806,normal
572.2912774913508,26.099326136796442,901.2186165186537,95.7314947821971,35.42182259416886,0.5868181693808396,anxiety
552.8350966735791,16.745377277467437,952.8733962434012,88.9784448982664,31.750808299937574,0.45724247486637026,stress
503.253951225676,10.207032364814273,1014.9481200226126,64.79020339819076,15.575860996035148,0.3858279040030926,normal
534.7457506296632,24.089954509065382,1011.8980062377236,81.96075985384635,26.202747954349388,0.4092919777868482,stress
520.5595795663925,12.318488428630197,956.9713992823423,73.04583297183879,15.707765648048419,0.2627750993444941,normal
592.6024207902346,31.860534251800487,988.7821019991738,101.58695991207276,48.85597093815164,0.6231850292918952,anxiety
539.6021540041705,11.173021843236192,980.752889153145,70.25005297540663,23.202351068822274,0.30156101279175584,normal
519.6846517231816,13.327195317514196,931.5791571337104,68.92839032803164,20.555496694435764,0.34832829036720847,normal
514.6544737317477,11.39166089633715,1017.0083741007822,75.49267561275576,16.877845133228362,0.2664912314297424,normal
524.3017940760575,12.993447101191867,1010.8683012562127,79.59940658717701,19.044143147191924,0.23979842779188737,normal
563.8048340598414,25.137343876561104,950.4172266325745,86.62750557202932,33.13232975593845,0.42227601724655217,stress
500.8233797718321,8.275184978887692,952.8464814772607,73.20605439402676,20.324113536703557,0.30977173301547123,normal
522.7323441334189,8.03242416103222,962.8971162773606,71.20336366923684,23.378082172161022,0.23227256021107676,normal
544.0327643734006,19.864940660272772,972.0000080127946,87.5008738878663,24.262764435675933,0.48292223135775236,stress
530.7997421239444,10.052034111827092,976.8168029051922,71.55186731762315,20.163134011884296,0.3296636014904191,normal
523.9159991524434,11.021616823607756,985.0100956163924,78.37853067279109,18.70701401490544,0.3313512126949114,normal
509.14571222013853,12.746113067913445,995.3938068115261,61.603600281638066,14.44839868308896,0.22938438471675415,normal
506.43232205669995,8.792666320885287,1007.6656387836441,69.75142387346769,10.940344324327988,0.3221093510030849,normal
538.7483920129433,24.92666598707458,936.6955716501404,88.11670737318266,31.269183865606504,0.4941503315738213,stress
561.009762073398,16.261914933890743,961.9949150036338,83.3698609646265,25.161374267741632,0.5272707661609397,stress
532.0097203929192,15.09568565109886,968.0602273912824,90.05651500695376,26.913475073098727,0.4801838828734463,stress
572.7824774719938,30.81753708463165,943.8306758155294,105.45033481809796,37.8245378737566,0.6598328809468333,anxiety
530.8897907718663,9.213615167063283,986.1777538796913,76.3557065971389,13.416246041548144,0.34132597397574194,normal
526.8680273762343,11.960123747970538,901.3678767891522,67.09542583671968,20.716362461068634,0.26852902930450434,normal
530.222045541722,13.669121120982444,999.4142823006541,67.3588150260417,16.587247249506223,0.20181083231607422,normal
507.52484638895044,11.58881957711556,918.1503750281189,70.33145256891959,19.819760302989316,0.37658296330374447,normal
505.5530869059764,8.471454210281403,918.6209561013131,67.49105774040243,12.688834178616851,0.3902889651326184,normal
562.6963138922443,18.16688913837056,949.0962160482978,90.42429679014572,21.65905398309741,0.4860344920040065,stress
532.9040224263863,13.811539051968941,928.1814337806308,64.07532918255379,10.148857316917535,0.2778809877957751,normal
523.6333304227604,9.70220533699618,955.6380092051938,67.60840015015124,16.064346208823036,0.24069454849951918,normal
563.1021220909619,28.725910987758336,988.304993689195,83.68771163740101,27.132135728491004,0.41848711871988276,stress
517.606099749584,10.640989141732359,923.005163947187,64.49231223687704,12.312175647677307,0.303740198876119,normal
506.07610774049175,12.957204620516972,964.2825947212053,73.76810036984274,22.939607067237684,0.2392838431744035,normal
512.9182589176498,10.392721461885131,966.1667157941329,78.12286509531532,13.98374249437909,0.2137427355447922,normal
545.683743076183,16.805813681836334,937.9122507234641,91.96271067944728,29.470639664650648,0.5378812046580588,stress
505.6369689989905,9.721704098691557,948.6692009944289,60.863474715940235,15.92706614896478,0.20302213684289502,normal
520.060651787488,9.093068181563332,982.7815798098845,77.41156850092014,14.311143946983696,0.3642776725801389,normal
532.0878792301615,9.12476961281689,959.5124155049233,63.296296314588744,10.59189299336349,0.3930030738908944,normal
506.25748170684346,13.345240559118325,930.1918047754612,61.66928169978767,22.705912404758493,0.3608989284863645,normal
520.8123080361518,13.954072103659694,994.2759380671447,71.87321582417077,15.539211553233116,0.2604839022557073,normal
572.8444035868633,32.88958781677715,931.9274228450662,109.76134195949771,39.80024169631088,0.6227935951092574,anxiety
569.6043538434747,15.169538048835337,979.0839935888533,90.13184068004638,27.693121134579016,0.47239018534922816,stress
557.6422325095705,17.308498570406606,962.7355251356253,80.09696536684565,27.633411051048203,0.45100065790898386,stress
524.4688298493741,11.79143950262607,938.1039556508596,63.3190979059157,13.423530452405487,0.303601613280925,normal
525.1577138711954,8.746187771936402,973.7150655630854,60.66378709124852,24.71788793746174,0.20622981855867822,normal
522.3361699894322,11.702559938190484,937.5879161372208,78.19253638873185,13.605983693402603,0.3349572604334821,normal
538.7965759125841,14.034893320858155,937.6061182983818,72.15810428181408,22.25169199758454,0.25371243349072853,normal
525.9853159618885,8.38333147175422,956.072679507146,60.43646793550979,22.640678532408323,0.34374792357070605,normal
548.5592679266755,26.907271558620593,971.5457199397925,89.23131169731253,33.579484985157734,0.5454728296950677,stress
502.91052025456776,10.379124746376462,949.5151735603542,77.84604996279305,24.89882523134446,0.24577509249669982,normal
549.712783381313,24.622567218843777,981.8015938433788,88.25797520894338,28.075924689304365,0.4294730450434317,stress
535.4885097030531,13.38645053234356,904.1171854901295,74.5292343022601,18.830972831969795,0.31658521136085266,normal
514.2701330677436,9.660587542151962,956.4472984861434,70.90053837793877,18.54066041773424,0.32472975565805323,normal
548.6677248353764,21.43593553953999,902.7362024366041,86.16023949515424,30.36869995678984,0.49212793664785176,stress
543.59887455173,19.596492340550576,905.1557910209776,81.99514698360993,28.940751736414253,0.5450906785555447,stress
534.2595936475329,12.655256721823788,974.5998656981451,63.47523186271488,20.111954433040943,0.2849701685736174,normal
583.8308616776253,31.6975658027397,927.9199670027756,103.81697674057527,39.044450131507745,0.6527087745821507,anxiety
537.4461909664312,8.255847674936664,985.5013171279136,69.24591122001215,22.33269830224635,0.3384147294048738,normal
549.4452194085969,29.014561712512354,902.0141869579722,88.3681051349011,34.28580128598087,0.5325525951531985,stress
560.4230256982113,25.972446960647083,1013.8812952181132,94.18956334768399,30.575613595303892,0.45802108630778204,stress
535.0661441063338,12.330279647506291,1021.0083456088466,74.47946110932187,23.814917816448638,0.2288157572026399,normal
559.0328770655651,34.966660565884744,957.5341917626072,104.42520676324166,41.24241419609237,0.6716402789008915,anxiety
501.63100566219055,10.394572241011353,922.28070549991,66.69022577483864,22.05224114945327,0.3528881456151009,normal
556.5176565021633,44.177437463808204,1006.4320444209784,98.64769970396338,36.00926919382272,0.6499610957042379,anxiety
502.25501986603706,10.608819619086198,1000.9323134187464,72.72802740366814,21.313723895231213,0.3935522930539124,normal
543.1271793119045,24.047251801844205,959.6784659511854,91.37060631516825,25.89981005577783,0.4128104545244083,stress
550.3676522277214,35.22187642944796,912.9348228316334,106.38465247781046,43.931222024301626,0.5521021776289086,anxiety
544.3683498793076,16.889327945690376,989.5361919612694,83.84287271659032,33.638032043097304,0.4712153509065477,stress
529.1842471335226,12.001288826289299,910.8954458939594,60.18663239654187,17.251111539597197,0.28163033817333966,normal
524.7287225326504,9.610061861013921,982.449053836415,78.05789990383974,11.777539353972273,0.3513460334137136,normal
510.3176651086062,9.27118401760998,981.4353464031202,62.66959944831888,18.78797182680279,0.30300113194194467,normal
557.5871456476526,41.19957487366945,953.9418096981877,105.68330307765738,40.42310281644435,0.6306371707077272,anxiety
530.7594966072204,12.782811345617171,916.2080867157847,62.289752761318105,20.639812427089144,0.24650119844156626,normal
505.0824205060754,12.676595955994523,974.8276255792908,65.74275916169151,24.452488613313825,0.3936131624101518,normal
579.0860763736738,25.78723759639459,916.588489979252,95.9908296173324,47.48586562552862,0.6238550573051873,anxiety
521.9811552929494,11.319499516602246,985.5606064617625,69.37535930929012,22.72063134402226,0.3239052400072607,normal
554.9075816379919,23.748785884688353,928.9838582125562,82.02825970569282,31.281714990454624,0.5122913062872749,stress
524.6002890679667,13.428693316865074,948.8391863011157,61.245462117637715,17.084227062444725,0.24086327667979407,normal
500.97263865725813,10.536757293816432,987.3804145793442,63.02493657469869,21.415566853761746,0.3919725605426911,normal
524.8123820541385,8.204730981241914,967.9469766327379,62.84274247586915,22.106063558000542,0.29191681144272463,normal
513.1500644115004,14.524196738570122,979.0129831242268,68.61970441026592,22.256922130233775,0.3719589349623291,normal
537.8899430953544,12.311042317276133,993.6535321416042,70.4289137808718,15.356817389507542,0.32990178594148944,normal
574.1008669888466,34.38813683978516,939.1385187055268,105.87989586103816,39.55602569337649,0.5849528446595252,anxiety
541.8543045405315,29.01649558130162,909.9963102410306,93.9912940859047,21.857690400587263,0.42963338585177174,stress
501.6347446506592,8.910603680914424,901.501450929126,72.73804634909487,23.071210512862812,0.33233345192583785,normal
532.7380181026407,15.417783612316116,978.3008902802945,84.03742356487444,21.63023809062038,0.4059883798845627,stress
529.6307447101682,11.917482319157525,905.978292818709,75.72556398768066,14.429522163577492,0.21380918126291995,normal
579.1035065562112,32.440871356244145,909.3345608648075,99.64193864669274,38.547123683580416,0.6526653041603961,anxiety
534.5888950502022,9.818276486322283,976.2872103406453,61.022707628842014,15.897928015418834,0.2879480973015817,normal
536.8749694009247,8.893062119568945,953.3579309675333,65.04482040346723,12.087950520185434,0.39370746633997844,normal
532.2976062065625,14.568383197747265,930.6408010172581,73.91236292993614,20.38798647305662,0.25416126560739455,normal
509.489963499872,11.631866399882504,1016.1391058445752,68.22191205201413,11.528385820990202,0.223510260030044,normal
531.4070384557206,10.582395476988406,979.1772175103466,70.60604266498316,23.501247745247213,0.27478420940256276,normal
500.2208846849441,8.561636219631495,996.7015226227754,70.11705385903659,23.64181916405863,0.26258147884272964,normal
510.3511992640007,8.83833492273476,994.3669748769319,78.86151675489415,16.606620254686362,0.34757699696692124,normal
538.6661927617467,14.978119762921631,1003.9262959163657,74.15670194459537,17.50601718565302,0.2823916190068204,normal
563.3828716102252,23.162979937555534,976.0910999706836,94.87299163741079,20.820990603874787,0.5346932824277529,stress
513.5198062740615,12.7032492051911,914.9059228659554,61.30409182520984,22.532203386132913,0.23668843928068692,normal
588.3173606552326,25.436934239724035,1018.2100887802142,109.58852353474606,49.87436514441842,0.5788473659176526,anxiety
557.3979167054703,35.17918080844095,933.082524129795,101.31951322450047,48.12115474484849,0.6275908254631466,anxiety
557.6804502378662,19.411011932651668,934.3565869644616,90.8023619139641,22.532150086768464,0.539930153518995,stress
500.6182646611547,9.040639094271791,1007.6496395428106,77.2027938669887,10.722790185899443,0.34042921923636593,normal
562.2285810267288,23.91362740962896,983.3590852244802,83.58599576112545,25.655808965025482,0.4727526981286062,stress
528.5838369080025,11.412018387746595,1015.8700673238837,70.10413547153277,21.74797619947939,0.21329266515525444,normal
548.6519765175927,21.426868557731932,1003.1082733059158,80.68377736923003,21.975303551543107,0.436120572410976,stress
509.50550175969596,14.257248081356703,934.3266468571464,72.72354729416466,11.152931129142452,0.36494864746940153,normal
594.2171713985643,31.841388693151107,910.0994543985038,97.49755320574273,36.06044912276549,0.572486387987071,anxiety
504.68268065710424,13.802408319054742,955.8459960960149,65.9983822301397,10.437546454678968,0.31738730131178144,normal
585.040420900087,43.96739105577838,993.2229722847796,107.29243528079078,44.94289681451998,0.5851487598475791,anxiety
529.8417951706169,13.377913897051627,1014.0046046785877,77.85046579909692,24.256887558629437,0.3271880653653422,normal
510.83329005048296,10.657846857170869,994.8455244312239,79.67042945430444,14.399629161708472,0.292847703947845,normal
556.7147162680326,24.036741629498817,935.2831318239398,91.98736956657173,27.61636757282853,0.5112440931177834,stress
515.5470915875793,10.492677081284924,933.3551821499522,75.5289489299945,24.907725833495473,0.25945815806146677,normal
598.1842594343525,34.20710746269654,973.9216885441872,101.89015483390935,45.15686395223846,0.6220275272892832,anxiety
518.9584656105148,14.100757643066634,910.5142099896796,66.91754921475714,22.979436383633686,0.32894904971536376,normal
547.3537569142097,28.43534916399925,907.6193399762177,93.44861987703516,21.460503406868316,0.4483101302793595,stress
569.9823081300176,27.669988636353366,996.6977896172484,81.90416620632459,22.532876950555924,0.5366239397029473,stress
560.7779557632819,21.46952559511522,914.659109164095,81.8492566894842,20.80452187281246,0.4009070564775968,stress
581.538521008631,35.252304882063996,947.8996754380476,95.36966606954483,39.523803048103275,0.6164040552951153,anxiety
530.998866484682,25.06639735628964,939.0498871290231,85.03057409326193,30.065194707993648,0.5139735487642583,stress
524.91561903276,8.091013464575152,947.0934367422245,75.95828319231788,21.609870672291436,0.2750937856933001,normal
530.7662194220501,21.272171822441994,986.875825552912,83.6100577213573,34.63668227823399,0.521771007752633,stress
533.4392048204883,11.864330265963861,924.2764702247597,73.08585104649924,10.020304385732022,0.24353347991610722,normal
517.5588568282254,12.132064597603655,1000.8102316007955,62.81423056097517,21.597128108780073,0.344547550447761,normal
525.7315287376941,12.222064766264717,929.3719493128358,72.41857134956862,10.117623861578751,0.2543892078836898,normal
520.923913766806,14.649728287651577,986.1739350239053,61.41864432267547,12.79203846630022,0.280377439978146,normal
511.5900581165507,13.321595019227805,909.9342409516997,66.1120843098043,10.93686390428607,0.3275376493791871,normal
568.4125053697567,42.26863155578769,957.9403635049304,104.6889183953456,44.45028020928241,0.6733986202720641,anxiety
501.81785521365833,12.293879724474955,1014.4218916236609,79.43065381802101,17.60380656942752,0.27098493217540204,normal
521.8246715726374,10.725069298293835,934.0759484079689,76.8289510616952,16.715101381156273,0.2528123969387438,normal
506.77970986744367,9.43597748337405,903.7679954024078,76.99950742961323,21.513514427768776,0.26744131511315045,normal
503.88705975083076,8.459960475998466,981.7017983088494,70.9086373881381,19.86030223255193,0.37913495552375576,normal
562.749609179362,27.34909819020045,993.6365685632043,82.30675558269824,33.64144255528815,0.4278665432048062,stress
545.1900609167727,24.892589724769906,1000.7467538094772,81.45448506448137,34.42124929463074,0.4340467809207282,stress
518.5479361975993,9.614688682024312,945.5742683641499,60.110115983208416,12.273926122001491,0.3318090820264465,normal
539.4991422700903,29.20134367038361,921.935221902174,81.47636283652054,25.444742606058075,0.5428093669958505,stress
500.93087742943305,8.359980694389753,979.604466054965,72.85763820117415,12.486246697302338,0.23754448113845042,normal
516.5927800935066,8.60890731937987,963.168343890574,76.42396565100452,22.10040279542109,0.3946153595824597,normal
556.2563841400263,21.980054009092292,943.7847582283603,89.67827863766996,25.883266901503102,0.4656849830714369,stress
528.1207583558071,13.716196076301038,984.3483020614801,76.50098820360124,12.14275430951258,0.3475834786708051,normal
525.6967711282526,10.681969697746482,926.2935601486201,64.7974822551189,14.357567585071305,0.21539433387617482,normal
515.444105512031,10.489709015254643,952.5435434524466,79.5820987603031,24.369011815851557,0.32727485630667486,normal
588.2658149762693,26.826514686671143,970.4653084173273,99.9010833585295,49.48172951900932,0.5529477224120272,anxiety
565.3834755291846,17.420510375825746,1020.1959047232382,86.28649209375628,32.036026766769865,0.4895968567496068,stress
569.3611570605103,33.99887348537719,970.593818067113,104.3847486941218,49.465298510539796,0.6520376032495561,anxiety
538.8495478578426,18.394086450047794,1000.9839606293264,89.68403865587618,27.550176959092312,0.4643724237937483,stress
543.6164622445704,22.711431638268895,966.997126438426,94.23471000570503,32.54663288704805,0.5448748479577499,stress
531.195021834305,14.45749566824107,987.6403748937953,65.643741493864,12.007425444995397,0.2785461486542833,normal
508.9707723784224,14.445893178321606,907.0787701550751,62.78490742235191,21.11356084228107,0.3387899181020314,normal
536.2152790567706,9.747676062014301,928.9802981568937,65.84436460923796,17.15350159701955,0.24829929705137357,normal
500.57573954519023,14.890815264924864,988.802683603676,71.19511367276765,10.86766674170741,0.23397620121014706,normal
500.20246335384877,11.155875599828924,972.5839411851973,61.307323151287704,20.60464731183574,0.2878421202499435,normal
561.9092905339286,18.830045606448664,911.144729615284,87.85102056383012,21.63520423461393,0.4502183562836019,stress
514.3386291417709,14.786293032927581,917.6694473197877,65.95096902637641,11.872312209502724,0.23096572251954398,normal
501.8580165087999,9.767058610408146,950.7574167830653,65.85644073401929,23.32605508463022,0.32645643072752795,normal
537.7906291952971,8.532916016432102,1009.9389226898179,67.67677766089959,12.509819560015906,0.2259357956448471,normal
531.2041548884528,15.248887209488968,923.1433525349127,94.67331002789837,33.19871940090522,0.5411488483861656,stress
501.1513070525336,14.1660953143925,960.4939014468689,61.3288768871155,22.92536355681018,0.29756686370880253,normal
567.3021951367725,16.96460614491261,974.3331813176809,85.90333004159473,25.66044765194976,0.5153120697043769,stress
526.702309540841,14.814422784241778,988.8241001197725,63.08919494446648,12.35909812269573,0.2459653451595237,normal
533.4120998235695,11.989227794099216,916.3143929557802,71.75538721724396,14.429357410719149,0.29821914587663306,normal
560.1767436943449,27.85628608945735,1004.763146590903,103.25855951812046,39.01995900326567,0.5928106102695134,anxiety
514.1340891210422,9.235696224038557,908.4533663638013,60.153280652984506,23.138246252755856,0.2422463662945862,normal
538.3623749482739,25.237986893065823,1000.3997044969702,91.40008317443147,28.168329869820134,0.5458692085041854,stress
521.7078433263299,9.070013974290324,908.9834140865253,78.74776132994238,13.019681617336499,0.2534804055715083,normal
510.0712918330146,10.109645119148995,957.3652466356752,66.68476637392122,21.491738991933794,0.38415332169267147,normal
590.8327621600812,36.57083636407063,950.7386408448526,107.65593189065386,40.62982018659521,0.6576342073972803,anxiety
549.2852839567937,19.138840415708202,1021.8326377597488,83.14535416145301,22.513498089567598,0.4354914674061261,stress
538.1779348985709,22.260308587641063,901.5992862539011,90.26471373388017,22.524178827615692,0.42425418299109807,stress
530.3138444185747,13.844511657595094,975.6813891305538,60.25215039951518,17.1071474259692,0.3484506374398174,normal
552.0463984766549,29.48620814729621,975.2847748295635,86.16183214999418,32.443440735245744,0.4249344043077488,stress
534.1203782186944,12.167695121240307,984.7227555079161,61.634506914935564,16.86549407738941,0.3262837842436753,normal
587.8225543994456,32.784172372468774,948.4737609283042,108.3624822243445,41.452140981452395,0.6666977457356404,anxiety
541.2646416842252,15.759337084036112,910.667987472085,86.23727852027616,32.30379978417335,0.4279629707280962,stress
539.0340831785014,14.248701977538824,949.4540248312156,66.33523354135053,22.107333060473238,0.2701041068572324,normal
539.8663446322163,27.259579683198552,902.5958306105149,83.15160789368528,26.458037313695556,0.48259906888548465,stress
552.8695921844137,40.880289005319256,904.2627304356139,95.50135358653256,40.41824088463718,0.6928390117543486,anxiety
507.3941782210211,11.489095392503401,976.4646390005715,72.91621625310412,15.136719682520699,0.25285525263172787,normal
582.4341476678683,34.35441231942302,943.1299710816977,100.32925961355384,45.11440360550037,0.6872263224777482,anxiety
529.2797576724562,9.239073389937229,902.7433203895956,67.06502817004129,16.14443342342848,0.25009357975849983,normal
524.7251296183158,9.86919789118595,951.6030957742904,78.8345142323785,21.385079237828965,0.37293178437162805,normal
520.1254503432035,12.203618023035574,1017.9740144336255,66.70416094741745,15.822485591904933,0.2429825274072792,normal
583.8199184455003,33.65679842114345,987.2999001213655,95.59695691003479,48.652941862170444,0.5648719168416436,anxiety
533.9858956270965,13.958448398341382,955.773296453844,69.12473017911084,21.70947576138336,0.2512926122033532,normal
515.940189375895,9.444948902324223,1019.4029325294599,69.4233579786563,19.336204623489948,0.29478424402322057,normal
585.8630937932878,39.36028356254003,977.6307839136193,106.32241187543497,48.10301396367822,0.5608319778002783,anxiety
527.8299475593847,8.625877016185816,1020.9756649066294,67.23706186410277,22.825453024299026,0.3145214465764045,normal
537.9808249463057,11.779897658010988,939.1104550727536,65.50762348510837,10.37790120938844,0.27429345252487536,normal
537.9554214901333,11.72479439685721,903.8606262776794,74.96146358859065,14.326081567281186,0.22027457951063184,normal
506.8209649474917,14.266447863810395,928.5143711304947,72.03763179272644,22.40061039612231,0.28366677282045605,normal
520.1054837242077,11.167076612928854,963.933907543827,71.3066050914322,20.55785637451497,0.3215505366191305,normal
587.809611705339,38.899402662429516,987.7449526318264,103.6813471454,39.22215953676379,0.6657754052845165,anxiety
536.0167222865332,11.541220752191261,921.049980230855,72.20450298955282,18.28751451111834,0.3905630034005012,normal
504.6429056202766,11.6798312761188,933.8053760909581,70.54799244245353,24.36684701482306,0.23899503998005786,normal
523.9463393678815,8.62091773629939,940.1276671745431,65.9307116257531,14.668262425950903,0.3249748199213998,normal
524.2571623863836,10.968914699116702,982.3117614251038,65.43899452257261,10.00202039506728,0.3353881565993675,normal
501.80874680424756,12.150579543891922,907.212310642679,79.8563367799814,13.364402249275676,0.3705094842491941,normal
552.7189718926433,18.022925670094693,973.8642981960297,91.97983670534956,29.523599887297443,0.47789690389634554,stress
520.6520139320478,13.722104932169087,971.9413737841892,77.14358513997506,11.803108436808644,0.27450665475191016,normal
503.07919639315173,12.770519055567505,1001.0383141045675,62.97776100664889,23.396353077931224,0.3226583369774758,normal
505.71966728211345,8.259053443008447,993.7642527830105,74.86386397463207,17.213352199045133,0.3161900759776359,normal
502.9617860693636,10.784989193320191,1022.3461615651262,70.1672109383256,21.857646914123276,0.22118116088075154,normal
512.4392928686265,14.505631923893102,940.481202222255,63.20143269909146,16.940134075980904,0.34022791888349474,normal
518.6239207252984,12.569222754963123,949.1254137595477,62.10947399913261,11.865525985007654,0.2775652179833863,normal
513.235920994106,9.196213111730462,969.3964367523773,72.72582707958496,24.16063140738097,0.24052652682706865,normal
571.0368281284309,36.38412926258855,980.5449448378632,97.35140642977458,37.164680655312225,0.6313022947719589,anxiety
569.2227290824289,23.667105753766272,999.5734733092637,81.3168235558724,24.952339254734067,0.5383905635640938,stress
570.3208268287009,40.48971206239582,909.0105328600634,100.4008985289609,37.45424306207414,0.6195904395182337,anxiety
530.0348427116598,14.651661476745616,910.6216229499574,70.93296440375576,24.717667551434417,0.249801747221818,normal
511.1973558778377,13.598986791631207,912.5761827277029,68.355219585502,16.86993638505357,0.3167427175462728,normal
506.0166756441411,8.906604448979628,929.6583329227748,68.22042150531091,14.543963584606438,0.24215862031000573,normal
560.4548682294807,30.573886318570516,996.4382608484063,108.15680701493432,38.79256101035434,0.697686384456417,anxiety
551.050457849318,33.09937174752377,907.5522873611627,107.30761256348164,38.85728526663644,0.5762177481825049,anxiety
506.2397808134481,11.225451376229081,995.5305198081663,75.49307062362364,19.086688741790354,0.36656607535765423,normal
568.7230552580294,27.08473208045013,969.0016150312539,87.07609756277658,21.01407124208575,0.43635305427051435,stress
514.9948231809482,13.16307611112224,1005.5766947603919,72.62615106183978,18.701332520041817,0.34102782911411267,normal
517.101640734342,12.068667549958285,912.9664122014657,63.76049469230832,22.983657184368283,0.22037862017458737,normal
527.8806296398108,9.086681721514987,1021.1695988434433,64.02727564271949,12.049013554767589,0.29485100419539073,normal
523.4310232509386,8.328761767425386,950.9675302560314,66.95882823164334,23.35211706094022,0.2765597528872776,normal
587.8888280187579,42.15715567034978,960.8864505709448,107.54567866115599,36.39526113894013,0.6719713006722587,anxiety
536.9009550778545,27.75861792022674,953.6636640583855,90.03314796561028,21.83746792948984,0.4501663790677156,stress
504.72659310486625,10.339707235718725,928.7614399183809,66.10621353393462,10.74968542989518,0.2736694427588703,normal
536.0819426969797,25.972295395546737,927.0185310737163,81.06733518316865,24.680960669780312,0.4703561121277231,stress
527.869486614566,13.396385426220753,948.4723434922838,64.25288752742192,22.654744960777357,0.28646924528066947,normal
518.2262701114286,14.599122418945878,921.6799897802912,72.21560142151537,14.98286549673407,0.2169130756194476,normal
535.7023599395991,8.870080564398814,910.1221177717931,67.83051396355658,20.315830636458408,0.24967525207396005,normal
565.4845855552594,40.670030051758175,935.9262699835386,99.02214844417881,38.654221879732916,0.6447316568014241,anxiety
511.77795568278344,8.469535341718993,961.649670737045,69.16601283057312,13.133240860077455,0.3065008132831964,normal
533.6847569254284,13.666612523074146,912.5296805653202,66.18745435725565,12.72420951634904,0.22019562136355222,normal
528.3229031118418,12.832763800405557,1023.6434380195562,61.96791299426795,16.810024317941725,0.21036715982394583,normal
529.0382271548095,14.524827977385286,953.430052934064,79.13229242166916,14.071140706700715,0.38822416250673475,normal
541.1457225246014,29.07723237321232,921.6562510511449,94.36918789889206,25.55348278526865,0.4513886624216698,stress
524.9319250731023,9.805319789314579,987.1056563474689,77.46645831721615,23.156358715272834,0.3765987649659546,normal
563.0620429676586,29.88872693231645,907.2620978552821,84.59623174026555,24.370416092566167,0.4900874795480704,stress
505.155188876426,8.474859413736203,976.1277645102476,72.02148333600466,17.571933974567923,0.35248939173497373,normal
534.1306003550019,23.463477250268042,918.7792447199843,89.74068230354933,31.74742146385546,0.47929849059839136,stress
507.08442717628196,12.425850015436712,983.5056217322897,65.01933322680595,20.538107523022106,0.3113756886344192,normal
501.220009997562,13.055868522989615,929.4554722284166,75.51223701850655,17.964065176181407,0.2133947224050543,normal
527.6758079077077,13.872286605121538,913.8780328053183,61.25306406910709,10.057298839878747,0.33472908349498154,normal
533.1575761178623,15.603870045138482,961.7681129999572,82.38105145061465,34.93601678076985,0.5072687529725333,stress
523.0189671150351,13.166235314984593,1011.6028673013534,74.97652673926613,10.93304839247054,0.331902153728154,normal
503.34002866794674,8.14888587595271,987.884342520129,62.29865994119134,15.378676922873098,0.21066959939777954,normal
515.7239089866704,10.428672413273594,1018.0246613924817,79.62594180994493,20.305288997548644,0.27085426544344315,normal
565.2245212177015,39.66320756273599,964.324733042224,106.12526193487734,39.4913468720466,0.5719912450540005,anxiety
586.9273026698481,25.283932689434472,971.8348619457691,95.39912549116526,37.03618779649852,0.6007760319138209,anxiety
551.2916750380582,19.954270012531268,917.7902126702345,80.2079320386929,22.46430264908614,0.47346788019823616,stress
521.4438546537648,14.78371841098568,953.6297369129363,71.44097286738602,21.48320125773791,0.36052806247058594,normal
538.4869019389816,10.949499015939491,1023.0275938380908,72.14179157437508,16.54921284653149,0.2358712020578482,normal
518.3301156196607,9.717443767769247,996.7851638902389,67.0474989321931,19.463826853437453,0.3384717844922116,normal
508.9438335407781,10.482355103485435,914.4294333377991,64.74866936749612,14.237440989592784,0.36747341595403016,normal
597.0667196393451,43.894147633449634,1022.4336905667128,95.85503581327902,48.64346641070452,0.6598919048860598,anxiety
514.0366005020832,10.23370331270279,911.9878797561933,65.94475615417234,16.430530314796506,0.37288664937367283,normal
534.6470458309974,10.549889027336528,955.2919355907168,63.703911357349355,13.26838831382485,0.20243135429547737,normal
509.68221086046003,13.558176324892072,1008.3044815221259,78.66226662687116,24.326728109375523,0.32986446491537635,normal
524.2469853780352,10.434664455315351,990.9681831896139,61.42015329066511,19.02330818949736,0.3618047280583353,normal
503.3935085634077,11.77643904662736,966.9546841547894,75.8915655740038,15.886872793442201,0.2683810556210981,normal
518.1816425907109,10.923065430494498,979.4805375908212,69.44986710013028,13.106137138162829,0.2554025048651958,normal
503.64824412194764,14.470773367635712,969.7248051688608,61.930689403908815,19.51545533307531,0.35246052490019203,normal
556.2812199293643,26.06926421096388,915.7261787962519,88.58184445583309,23.61747821461643,0.5089127277225776,stress
564.1382728530049,38.858178220495354,978.3335798724964,103.71133998583488,37.45593436818756,0.6738159843622943,anxiety
501.8401056808701,9.201755000938125,951.2800885891436,74.38707244738318,24.140864786411683,0.3780819034438657,normal
505.8829392371615,13.458917766058004,985.3287035547312,66.12626997556426,22.584959915770163,0.23903330344373008,normal
587.5711658765651,44.33116878761088,985.9221084238737,97.76372977359011,35.25369199882411,0.608408466950031,anxiety
517.4989968809491,11.552274136325853,959.0262480417271,71.17284792900851,18.431091916038568,0.3334424674388362,normal
535.8715363962405,8.32019423668759,905.1674396746956,77.80194070367617,11.975725428686403,0.297924892410049,normal
532.5160403652031,13.063940795820095,937.9754489775398,65.15214440667444,18.859567509919565,0.25567369633253134,normal
539.2013030114191,10.393105162270803,1011.8184870247925,77.15124675322568,13.52460107493929,0.36764608421636014,normal
541.0985871889982,21.294410742102155,967.1304281925223,82.09981065082644,22.935689601494737,0.49521162116560447,stress
515.0503834212366,14.09069211730651,996.9714828711278,71.97957016354421,18.461110432502764,0.31863164380789366,normal
536.2541754037894,13.591482650415657,944.6569145264684,76.58573598633511,23.773586300131555,0.27462452368447676,normal
535.6818622070846,13.162508736768238,979.2508722891221,65.13060124888496,17.40721060685393,0.22106909689626664,normal
526.3477452647578,9.227598950364147,1001.5794185689219,74.24028040661561,13.898574688642492,0.3815677027767068,normal
536.5116395682492,15.758596557363433,957.8065172998171,88.90670947915179,31.134383472304208,0.40014151229014466,stress
526.0784503801041,8.872638768422869,933.4489518281067,78.12874906688822,13.702358038028533,0.23585065114785617,normal
504.6347623810052,14.05854988125786,961.8621310279682,71.30043985718032,21.91315993824108,0.38894725175661593,normal
502.0591500499996,14.345304776751828,1022.4685459032712,66.56385507218623,16.106597336884413,0.35747740535046657,normal
521.6254048644042,9.270048045628581,903.179616159998,63.15909645670696,11.883253221439801,0.31181185698932046,normal
561.7037925283654,23.355607699125528,936.6821880895704,82.17990038630757,29.685875650265807,0.454375297679727,stress
552.6642103562185,17.344754560632914,941.9224667614164,93.69562200334784,24.617287250391787,0.4079240029547083,stress
536.4370873797537,10.77369413231861,979.4624630215856,61.74185533591543,24.596172444584994,0.39467652383296425,normal
506.9280747964006,12.559942718463049,970.346715233984,74.20485597246623,12.93749626201405,0.3264782648656775,normal
536.0463204196395,11.271810578749088,1006.8897958018052,65.53628615582612,24.11176780754662,0.31856803610162204,normal
558.6419989296858,20.893426633397684,972.612872800204,87.79417513704512,26.87042924875803,0.4306096582819901,stress
513.5046068561451,11.661457973383836,1023.545405591036,72.06975333192909,10.214729165005899,0.30885079322273956,normal
563.9243694006252,17.031893051920363,1019.4715134868167,92.06248347475827,28.93049555235309,0.5010634344676135,stress
503.13825525369066,9.876445485760133,989.0472614520853,64.0403133680498,17.769407915688685,0.3313458969443216,normal
567.4193805410998,19.128587715555124,1011.3439763870234,83.12473085012778,23.063631595526434,0.47875740103680775,stress
555.0931574036272,18.47070954565272,900.1378996803272,87.58545115672061,27.658556130927554,0.5235996477819967,stress
514.9816047538945,9.182545441505152,994.0246362951988,79.1300279659896,15.109062498719375,0.3345405988417796,normal
516.3581177765708,10.061260316793424,980.2868645551707,68.80646836736697,19.696881124568957,0.29679787363594945,normal
559.5626790375749,28.896956969342774,972.6099023703695,90.38075829559617,31.77595881569647,0.45354736442029964,stress
526.862927823712,12.609162842608978,932.2168378843843,67.2383998167573,17.63335833386584,0.29690759901600217,normal
552.8112147425486,30.957187967804224,1020.8881298284691,107.32758984129353,46.93367564386379,0.6442045696854306,anxiety
539.8654734829562,8.567323511353536,965.3531415250447,72.07590905898775,11.17683724475686,0.2652507836082294,normal
522.1541713760528,12.757530978851488,949.96954216688,70.12532118990406,13.07020163585926,0.3071870157704237,normal
512.8019840412245,13.645928035030149,908.6085565005155,74.79808241533861,17.82189458082208,0.34963678240976925,normal
520.4837223319712,8.892420636323877,1005.9437515778278,65.46141619945625,14.82243551871823,0.23189845250827168,normal
517.0843115450502,13.892801437307904,941.7750781796173,61.85981279646264,14.181398086218294,0.3213463449434873,normal
513.6321416101207,10.526817278580188,989.8180133239639,62.219789384269625,16.554938284984313,0.3801921791380936,normal
531.663161749034,12.881941870727879,957.6854959231811,74.07371954921592,23.89291102647673,0.3528706772872855,normal
522.0762735509794,12.882300231684987,901.5029760558427,72.25146936689639,20.714899536024966,0.316139816910857,normal
588.0200033643741,42.866089875762455,950.9818977235184,104.83264957769168,46.71048956257443,0.6063731828511911,anxiety
504.7837698375321,10.265754654829706,949.2184862489979,61.98356199174432,14.286753332888054,0.2900508492285781,normal
563.7783388154589,25.123676452817932,1013.4722083567638,95.7350696745691,38.17146886998367,0.5921926845329551,anxiety
504.53894084962354,11.799071103433173,948.4941105448183,76.0528661959142,23.32988620398098,0.25783748925919,normal
520.4536959544375,8.177704489622414,940.5521120338416,77.59163709903058,23.353225039542615,0.3672235406414498,normal
593.9918873970734,27.688668547391,924.6875840720547,102.16801032369703,45.37666458712974,0.5868727880533862,anxiety
539.4754774640207,9.99566618085693,936.1661597599536,74.51959819970591,18.14536875936495,0.3352052576105095,normal
501.4939275499686,13.989875276744,946.2832221620382,79.28953307801623,18.926975123585223,0.3754700906265678,normal
508.8843124188292,13.702023041619675,989.1810205057607,71.22969175919047,22.427039491736757,0.36459676100835353,normal
502.0672688467443,9.455203786022192,964.366141356891,78.30180136814087,17.819440714812085,0.2866944465511269,normal
502.3023504006658,14.609865423794037,921.7375648523498,60.248080725546295,14.825049844893229,0.36742392556613046,normal
522.174162100456,9.880741515694623,935.3242398432784,72.69342546507883,10.985422884315486,0.3606004143915674,normal
511.3936197750987,9.625488866027721,992.0956086287977,75.77229929344813,11.329070709545185,0.2537707028764387,normal
519.7768121881032,14.797407716157574,1018.7455352786671,64.83787656517678,13.331138060399809,0.20778760333753313,normal
518.3654302495305,14.740944027012961,904.7648672713283,76.44844747336558,16.56491992222305,0.29663617266273373,normal
512.9281172808302,14.140403785691758,980.6403851070202,76.0997799936154,22.512168955010136,0.32335672157050827,normal
531.0858766370975,14.122911708789395,904.4838871850706,61.877145696467124,19.84946610561814,0.29095286851053226,normal
503.61159080217635,8.234727043150455,990.9060147794949,71.43744542454372,16.043099239489557,0.2112352154694878,normal
523.6965827544817,8.256782420234185,1022.0132283470186,75.97428383309149,14.709500760660292,0.3342958297334414,normal
559.3200042889049,27.390970268224283,959.1996074955639,88.95417835119758,32.28303905780707,0.5078867800863748,stress
525.3240582909307,12.280179648042534,964.4519696209462,62.707081645553714,17.802548384661268,0.2653485084060082,normal
530.0245900656344,9.724814232673747,953.0967522507763,75.76894686506597,24.271447155427484,0.2077958641322261,normal
578.5453526876072,38.943325085807004,1018.8091268557575,109.14474176106704,43.46891121935482,0.6777372100025856,anxiety
523.6357177275297,13.74880113270409,929.4553722905608,60.5239341706413,23.938420804477808,0.2819342106751985,normal
565.3942047078401,28.02614285920401,959.3328926932915,80.89425988016988,26.33288350821017,0.5123444726290598,stress
538.4978917976845,11.238758499687245,931.9526781753905,61.17101858487958,19.878107735050826,0.2742225876860256,normal
509.0598310079175,10.78101103392257,961.0424541995563,70.36157532477631,17.146554795156874,0.2320925228542453,normal
502.323344486728,9.444336028840548,984.7286266992066,73.22741222140829,15.4689059229631,0.38121741209625215,normal
538.497891087819,21.631605520195798,1015.9065095205493,89.15161883054353,20.807457873626888,0.534609597748238,stress
538.772101424764,9.52777721505545,921.517039858327,72.68208062752663,18.866954548877747,0.2976991265319811,normal
532.6184571381933,11.671579726991784,904.9127343431962,76.814060560224,20.832148531838588,0.25421925075281315,normal
580.8310989082638,31.71632729283069,999.2170602612574,96.15453774512027,46.43194430675487,0.6109498346445652,anxiety
554.5588122530094,18.7953951138038,1008.5165687090229,80.73831371811143,27.67670684854221,0.44918259910273883,stress
525.8188918362868,12.064118451946303,925.0298280632456,64.5063385990247,24.26159061597007,0.3232600971851448,normal
501.4754778941813,14.297022012921978,952.7611734715614,70.34538112883219,17.314417145008164,0.2736897839833158,normal
553.7938951800763,22.015218187273156,970.1654694788426,83.2099201804747,20.903404173504462,0.4288035053704517,stress
507.8097195119218,11.488574409176358,917.3167555897828,72.17054545392934,20.695690759514783,0.27820657382547975,normal
526.3045156920138,13.61997414018608,939.203357017117,79.26788868427101,21.833987076640106,0.3029866699826519,normal
551.7215654286657,44.97585871631309,986.9940929347648,106.40052352704761,45.7908223336223,0.6472045477082821,anxiety
527.9264685607898,8.404898735943775,1019.7619479829992,76.05171359159625,11.918002018336264,0.2573039097854246,normal
504.7946146933473,12.6563805448734,928.3283879250811,71.21320188832343,14.419290945192898,0.3865421016265523,normal
598.9515920395834,27.789004724103204,913.2322655686919,98.49318719227722,41.2607441270071,0.5519921805187871,anxiety
556.3464541975907,25.096381963668257,974.6240350092355,92.15241634939554,25.059959132686483,0.5395247804293826,stress
526.3993618413672,14.359153929335399,940.3235679638622,61.612030275142494,19.371757941841036,0.30711076297593454,normal
519.8070764044508,10.254554159082248,996.2980097461759,68.64153765888392,18.12557218615006,0.3941353090819488,normal
568.4596929829645,24.92578023965935,903.1855159638067,82.71337852068348,27.582811875852354,0.4934815559602011,stress
509.1519266196649,9.782484583346347,942.0918238753079,66.53863232676159,22.704532813105907,0.31789079789693947,normal
505.1218335583109,10.106744968627714,908.2648530295255,74.11171725287649,20.77680920983825,0.22520040557279886,normal
503.53970008207676,9.986431340591071,924.8650661108418,75.10083857492556,16.66065623803304,0.32072744011187504,normal
535.820929139848,12.611483566975021,964.3634140726256,78.361531043983,24.659618619872553,0.3613330106053633,normal
514.9708318302448,10.23126752052449,964.5987891817332,71.6561367016698,23.776396482181127,0.24232717971397225,normal
543.6843048345438,21.12683372112724,956.015695021699,80.35919397905725,31.670694597247987,0.5271321449582105,stress
593.2183133227986,34.15800590254143,906.1143144016182,101.08207514495628,46.040531006390985,0.6647723274791896,anxiety
518.2427993686814,12.327783400712072,952.0461872988392,72.8780850708226,14.338671579589818,0.21131713122934315,normal
534.7439651275785,8.773318791919763,1015.3938066158456,74.05267546171032,21.381643806359875,0.3335521183206306,normal
505.16637660605977,12.146854492616622,951.3520893135869,68.3789558037495,10.636334473103375,0.21251296844389034,normal
539.9887069314452,11.471130145551395,977.3630837001632,61.19049400695543,19.915213813709805,0.35965863944183735,normal
561.83705548574,24.872397364463602,917.7669008791275,82.4505013759763,24.536994761922045,0.4894700613120316,stress
543.8033498205293,16.50368345584315,976.7774191853638,86.14509303938779,26.6099732513644,0.5190902700177777,stress
594.2619439353782,26.651443160705544,940.8430293934574,101.57066113858076,44.40130022813497,0.6665232050860421,anxiety
518.966953163493,8.824257580230988,922.4983551142577,63.74823888195164,24.44152525379809,0.3194310611980604,normal
531.0053129344445,11.759745792729834,959.7087715875562,76.31893877937235,24.49626078799611,0.296607939511778,normal
532.9014897169268,13.30766932992864,926.7887346311903,72.34133032235603,13.39187996874508,0.29300190350528554,normal
515.058534675122,8.640407861784285,907.1647895635494,65.4946305103904,21.12844490438073,0.2170206972239571,normal
571.2752829635922,30.651005350372778,985.2170585891247,96.52818146209334,44.49768012343658,0.5664223549103491,anxiety
543.071788234311,19.059659129726484,991.0613438850351,82.97966865346109,22.806864056157526,0.47987063618258463,stress
535.0949228771182,10.805341426127281,1023.9273019955626,61.03913155108537,19.116281833790836,0.3585516227145626,normal
562.9420890644727,29.687273326509235,904.9954043284719,83.30976589432623,32.29437304321468,0.45044850914055007,stress
530.4113798374277,23.609247991035154,913.0799450051684,86.04109227120246,26.284546606692864,0.4818543953219539,stress
560.9108567866032,24.341301048597614,984.5917694676323,87.12634809300152,34.13087329232893,0.5442326098206349,stress
562.9449444299589,24.37995254931681,954.5420993245156,91.72836369495334,29.683015346157834,0.5256208779428162,stress
539.4910451725978,9.859200298120943,1021.9761867326633,68.43656357077663,16.339437955204136,0.21420697780880044,normal
530.1351274103577,8.170805470895766,1002.4323861513135,76.6274702877142,13.765020748934504,0.34302003225674005,normal
517.2778007456847,13.64340895855143,981.1593905708608,72.49327137708528,10.464336863790153,0.21367064006199174,normal
542.475177430549,26.810579372239097,1001.6883702549005,85.94001449578423,24.812818141247654,0.43240471605896086,stress
525.1023232033625,14.153828152935153,1001.9875898906607,60.91297491004767,11.067374277601491,0.3842615024425951,normal
536.1663477797499,8.044701102017836,946.6101473580754,66.86334706345316,24.206360006627786,0.3554098571303512,normal
504.0449070449116,8.843968200440951,998.6357951379264,77.04527748782363,14.333274083637484,0.28845876109022706,normal
536.2140256782426,10.079852009362225,911.8463789154988,62.525294831290054,13.628399411693337,0.25390237245845454,normal
502.54233401144097,12.680502539471018,901.2115850799788,75.22243074086316,12.231939541076734,0.3175171742218804,normal
510.85396127095584,14.905606741550859,998.8973284790113,73.12323675362143,23.204721432233903,0.2184133972164951,normal
541.6584365397517,24.447309816520615,982.4669426368223,81.47011527171112,31.27737718935022,0.4038022906395908,stress
534.6828927432041,12.50799680267311,1008.9359296013671,64.09762548301426,20.698103249239267,0.3446887324709824,normal
501.4376909518697,9.249812634380335,945.4412303240533,69.95625016068581,10.289914463764015,0.2151399454619575,normal
515.5267970482608,8.579590675475885,943.824251033537,73.02295169763349,12.209545664184555,0.35924829010827375,normal
502.82274989601717,10.93139367424451,928.2818917216676,62.01274957047067,23.762287646979853,0.23758407616306462,normal
500.45414579069677,13.370318022517889,968.6714778483347,70.34892703510083,13.312791744445134,0.3000718892431121,normal
528.0786750903081,8.189671947524385,998.9288924584707,79.69979312281751,11.672683184819146,0.26672567916737316,normal
533.2977056320169,12.395302726436356,920.289353827767,65.30092856650008,17.28384549489097,0.2613553199044283,normal
536.9877447311425,9.76259341234867,1020.2071279695756,69.16373773475786,17.546259261697546,0.2619613750644938,normal
507.83164539157184,11.96483248207828,977.3585562598951,73.52355124150868,17.509053567320613,0.2381853170143287,normal
575.7371096878389,34.70460911530712,910.9837141149438,100.43440235000307,40.31096843532641,0.6440203945097266,anxiety
533.4806887321115,20.323465252298313,942.2788628580092,89.99782965039552,24.75413932650922,0.495346798292892,stress
514.7086321223774,10.787180855136603,918.394556919299,61.045157585720474,23.649147157815882,0.20382579328745742,normal
515.8617112928508,12.422694689116678,1010.6185014285891,73.84985653338451,21.79308478391587,0.36802161568784,normal
564.9964698736533,32.69031627412533,1003.4562746729255,107.76279135983143,47.64418223684296,0.6686966071469,anxiety
536.8283345324992,18.76753901322602,944.2179258222895,85.37209574793717,32.736470299380144,0.44615186342169233,stress
514.3265087213136,14.150409904486107,959.6866748027801,73.37145293445828,11.537739460997116,0.23098506222868853,normal
519.7047237597147,12.428353251937637,957.223205613467,78.33270471682414,20.573065150650727,0.2722807558134373,normal
544.0487754939512,18.306690063681284,978.5802383709256,88.49027637331731,32.92127069143276,0.4270237971598929,stress
527.6375095240986,9.60475976662849,955.2178516203305,65.18593517731547,24.68471672762213,0.33284387699779366,normal
547.5271445299338,20.927329462084575,948.2020671366918,87.3446611404805,30.640832327365793,0.5374733726673272,stress
534.4637199982899,18.98892675948178,965.952099046622,90.92984426354904,21.68885699793792,0.5321342740817129,stress
509.6058247511277,14.560599410655158,1010.9945998476105,71.64397493188227,24.50552912884219,0.2656466211356679,normal
574.281714920667,40.60096174080087,950.9780637073612,104.69464900486072,37.1207533132451,0.6744909389818665,anxiety
531.0565184296798,12.13161466808361,912.9095965236367,71.2088126196088,13.893126747641356,0.2650581236723496,normal
521.4309873629903,13.20762404800874,978.3134672914725,67.67665903866089,11.093527530518553,0.3005262485260261,normal
538.5447990835701,11.515365072318698,1017.1321632147789,70.87076434685292,16.49093704029557,0.3741053932538769,normal
533.7510610502807,28.292726581940176,973.5892114553858,93.17050269266686,22.059500490733555,0.4164794670611175,stress
568.849308364342,39.19342687009049,991.7080659754961,95.82652302738246,45.24006728694139,0.6228828409284419,anxiety
547.961550717205,27.081450645689685,911.9839594516812,82.65623383095935,30.455362490064495,0.45082352236342116,stress
512.7590252117504,9.835848310098775,911.8686048845001,76.7408225048588,16.49224003314204,0.35560504862893066,normal
538.0242858775023,14.608415377806292,966.0867655323656,60.36013111200909,19.999007185699288,0.20448517783241105,normal
528.2742937539047,10.87277778892763,959.5828614599708,74.65603089532502,18.000799431480438,0.31953365654054067,normal
532.3248151825767,10.88288639903088,1001.3449234753492,67.36619061013697,17.65648733506348,0.21827829726635528,normal
507.69156075234685,13.247562822200473,908.835834242892,72.91644772572968,14.350682979436552,0.2744346510493795,normal
560.938585420544,29.545221071193247,1015.0404709013505,96.58475518173395,49.79265195925542,0.6920729404009531,anxiety
539.620205680027,13.595911152782854,985.8620827642219,65.20573715132006,20.67584208619073,0.2646054691508188,normal
536.3026589570437,8.443624793309374,987.9235044119137,74.91467565462465,13.00711773292604,0.25174232843108824,normal
525.336150260417,10.442077865800968,956.0874672802693,68.97221261909085,19.398887666398153,0.23985406729336017,normal
513.1465818147966,11.975616613868407,982.068059541323,65.6304239682986,10.181546751641612,0.330868401098544,normal
518.7477263917988,11.856001594263976,907.7241829681278,79.10121022969977,23.52910295123725,0.22945511271041819,normal
518.746425679765,10.813516395264696,937.8850145215949,68.60854820641981,10.583949449885012,0.33817679531016454,normal
503.6514670714453,11.425974745501984,966.9614774109593,78.2154032328783,20.774967630580058,0.20807016537193995,normal
530.4314019446759,11.553272650791186,970.3750651844332,76.0014193739832,21.42697287066546,0.27980706352848694,normal
569.3986377198943,30.175848167290482,1000.6417497911618,106.34969824028599,44.78421669227669,0.5617940066484638,anxiety
518.888597006478,9.309306239902664,909.7437336472226,79.83619902698727,15.629948618794028,0.25062030783592176,normal
534.2184233604403,8.128734735832268,922.4625193423003,61.58813169286059,24.86991852346331,0.3816456977400646,normal
551.9200438663172,36.42398367925827,965.4954684577882,97.19921835739764,44.06456629732219,0.6498920749120696,anxiety
578.2707969876269,30.580165806955932,938.7914404930033,108.66680752087936,45.815819913468076,0.6948755003211375,anxiety
596.76972448339,31.06439567688501,990.1502973497526,97.82348299653569,36.611758289433624,0.6982020943098132,anxiety
537.3135111947527,16.152045724716324,982.3142348817379,89.07634277810807,33.454929340466165,0.42880241271100555,stress
513.8266913329545,12.34640862437234,984.3482446218359,62.851882881638176,15.94830522984945,0.3158628933323876,normal
535.720044906629,24.177465301548324,962.0345383657623,89.06538979572157,20.936469909166703,0.5212402316824418,stress
530.8386871981825,8.803857773174425,999.2727506895262,71.10169898604573,17.66913193301127,0.23770812114985024,normal
538.7963940864797,13.595872792363298,955.9719910168798,75.28745324443472,12.10829451367541,0.2575265458087357,normal
534.3365100737204,14.421195028235699,933.995922653416,69.20716542403852,11.096223430405225,0.36508313282478966,normal
522.217268224105,9.541282413648679,952.8343396024061,73.73179826985213,18.167454386557978,0.2598766747410697,normal
536.3728160831513,10.292481465245402,1004.7531202864941,72.25879164989051,22.504749429063786,0.28072020047231827,normal
501.37554084460874,9.480136048975812,995.5943087358625,68.78809979388905,21.42852718907305,0.22266070094549284,normal
509.9092395800463,9.805213798032415,966.8559983077315,68.5497937584123,17.261156045653024,0.3342314946759377,normal
507.46074041599417,14.137359457332245,1012.7200325625395,67.24470883304576,14.215067483630705,0.22107864362156104,normal
503.1093854785994,9.305067835009782,916.760619855198,60.734427250016424,14.237086395550055,0.37721868706264167,normal
577.3203537106066,28.323699992194985,1021.9342552833641,104.7528074966848,37.957744729520996,0.68005174103659,anxiety
506.8927948480652,14.78214498699984,908.9384576638355,60.50895519811502,14.64681788813649,0.31053245355534964,normal
537.3852982938947,20.416120895115558,1023.7209242372649,91.01912451065803,20.148660432367304,0.5165197655812946,stress
501.25716742746937,11.728126027861101,903.9166819583796,71.08453028264033,22.412783831594545,0.21852509661027344,normal
517.661220054935,14.034298556925194,924.915777393723,66.0253052152,20.9329216340492,0.31267907014252805,normal
537.4691995494694,13.040255755822521,944.544937805571,77.45460500969205,15.367211261703233,0.3628251371182324,normal
532.5119826903001,14.20184423765331,911.051429582386,77.1139218767508,18.65683879057481,0.39622358157358717,normal
511.72843086792255,9.264027415891334,1023.2732807914248,76.58789329717695,17.483434968039127,0.26255559784207083,normal
565.901980584726,28.853527929734007,923.8399818900434,109.63402878734979,36.56990660519722,0.581614464914486,anxiety
554.9789856770014,28.583278365803018,983.9321622026195,107.39585467400833,44.83731150991089,0.6038113765814334,anxiety
560.0307859684423,29.077946752096956,949.9352614033255,90.16318707775663,24.058388847319872,0.4635655179896385,stress
515.4694138520215,13.055767978751465,963.8373518872816,68.5931362547787,19.052396440650682,0.3763381223687016,normal
537.2302930241426,8.641074513286439,971.7199777087948,68.9411108761285,18.903414030681787,0.3992315346997558,normal
552.0166926069226,37.30139508029396,929.965706181579,105.06147538164554,49.04264846249758,0.6889878074827571,anxiety
559.5546670853213,24.29084954049753,1012.5942996322862,84.24926605238866,24.464754163524205,0.5000028477838769,stress
597.384308853214,37.064908453680594,916.5272480021895,97.76151985041436,37.49807770245905,0.6100534940259746,anxiety
557.0957251955549,19.608246255319063,916.518030592942,81.09102421668003,31.63257945078499,0.47335726006739254,stress
535.0988805410822,8.525964472150662,961.599090498537,66.07892802481447,21.89714310995109,0.2519152898550099,normal
590.0920084226403,28.383237876848405,962.5124723978863,105.14293619534808,40.133382871683565,0.5963376584265649,anxiety
566.3670105621434,27.081484939499795,907.6925586899689,87.70561782822958,26.6627511031755,0.47101534890625324,stress
527.8411918669989,11.304468615769995,983.8876598363786,68.23531083169017,22.755220016798432,0.24125042276723052,normal
518.0217654124037,11.364106041286536,945.6021595087839,62.42050000970386,24.28332678546392,0.3347988416291461,normal
501.62915209275883,9.906151285635582,915.1138755737815,77.80516106035604,21.777843147226125,0.3499955596904142,normal
507.33618039413733,14.446106803722692,927.3754319858062,79.3572006969006,24.460261106765536,0.26680999313375386,normal
538.1946112265277,10.976494531284635,960.2480981391044,79.68220638072995,15.970079394317542,0.35639199543159183,normal
547.1983047911929,25.19545825250018,943.9863410345464,88.77241716958686,26.91100400362511,0.4272726479256008,stress
503.7469907131237,10.334494201838009,905.1550345222486,78.73644924066184,16.507261293647943,0.21671086750213797,normal
505.5008377658397,12.488033430197081,973.525905577931,76.83867133583618,19.717261689857928,0.33702686197489684,normal
570.5365771745506,25.181740699024328,998.5814305791304,98.17571558221957,41.48100927599927,0.5566882139101217,anxiety
511.6857859414087,10.593304719539674,953.6095153292827,72.30025936077733,21.343204209252654,0.3370887766443803,normal
501.0604524216649,11.632423936979862,975.761642617523,62.839439795219874,17.049824022369048,0.33923122902758507,normal
563.5672157992119,25.92556281509469,929.7970913078454,86.23164500888134,21.581020660946933,0.44917572982750514,stress
593.2535549687697,41.52929218984366,933.9108399064975,109.96508394896989,49.524904401488826,0.627702302336278,anxiety
519.6646350046733,9.918386544810442,987.9217364535816,76.38127027723311,15.485211223920569,0.377825584788002,normal
530.4604252686989,12.173889149374371,943.0988690056338,60.96285671956707,19.93651017551602,0.3981358314131532,normal
534.0872600127416,13.859093298545705,926.6850321301374,78.26573895152474,20.45814072864455,0.22742969763054866,normal
545.3844430391507,26.206174006935434,979.850615851504,91.48787965827113,22.336598908702552,0.43597299283098856,stress
535.9421675410832,12.247005324679991,991.3138498681394,64.99092399699012,14.763801928916749,0.37176335423363094,normal
560.0106305575537,22.536409307495646,933.7223653653766,80.93062125434831,21.799294125964547,0.4306131491733641,stress
522.4510879027798,9.696868126905562,985.493656173021,64.08071269257798,15.798107602345418,0.36796032133288537,normal
530.2054902269448,14.102904694216624,913.6072886360105,70.67934945095527,14.111073840132864,0.2164544648554124,normal
502.98202574719085,9.305969168359141,974.4025479667937,62.63457546909124,17.1331905623024,0.25017860913822054,normal
538.7283013820869,17.352190579752087,986.5312654026411,80.76725308430596,22.200426710227724,0.4295032295969235,stress
523.1312056398469,13.599412597612325,940.2486429076336,70.77403595905429,15.06018320153639,0.29326195122803406,normal
536.448752479005,19.979572571037682,972.912057465274,86.41199792250033,22.686424089922724,0.40677270466184384,stress
503.3642722445999,8.538672411404464,1014.9700496154521,73.35609366452813,15.967549382532354,0.34147940000658555,normal
519.5781104111026,10.344339302599604,989.931949891477,74.7132622847838,24.21532038946706,0.2855202667406675,normal
529.1602867216395,14.876650318360245,913.0113421238536,70.84474410983697,23.049537394715273,0.3732191267223383,normal
536.0188908402399,27.485453094914924,987.01554596078,82.42186751096361,21.80545364314979,0.5465925734765394,stress
539.4400425529149,9.630716323275436,915.8364719707691,61.272818185732845,21.813236287881686,0.3608828119354947,normal
521.1860231342403,11.234040625508928,1020.2578095897395,68.73701405230359,13.628975204732944,0.36571111958121627,normal
532.4045357871672,9.895212712004877,991.5677019471646,70.38771719007875,15.92696361417255,0.2019957553316899,normal
511.2308944976342,14.4039213074767,938.1833127573077,62.28191569775867,24.490712576930157,0.2439107846459604,normal
511.23852758368923,9.169237622644527,960.3956779335481,66.62694014206102,16.141181077255276,0.2103978703955415,normal
507.46280235544145,14.755188374665588,990.7171006976612,71.86088668373569,17.152652024767256,0.20274911080226907,normal
596.4701741924576,28.22895372065842,934.0585678537003,100.24421598211583,48.73721522286116,0.6819089585210794,anxiety
537.3091393341606,9.566723303758362,996.8144366724865,69.87093160680237,20.940171911319943,0.3950686266958141,normal
533.3875336750123,23.63038759693648,1017.8660697983468,84.6889703736245,22.39819645049662,0.4777015647064147,stress
525.6349897921286,12.075193221233913,991.4417873214642,63.337204033975055,22.00005222645522,0.2350983254762715,normal
532.7205906368997,8.978406636384026,922.5826215453988,71.7640453389678,13.160574458008048,0.334574333719616,normal
532.1468830759645,13.814335854514104,965.2739299560781,77.72391560930149,10.28674141644646,0.3477446301453133,normal
535.6457245479229,8.125117543133896,999.934749614585,73.04448519090946,16.291719909359703,0.33992791392442434,normal
539.3770240004606,20.896558613391015,990.5508995016669,85.98998870298834,27.808157559572876,0.4544883027513716,stress
507.8393144967658,10.541576074790445,960.9577237959381,69.2107899454828,19.393514821315957,0.21539589341299326,normal
585.043284862194,26.09220606426938,906.4055122822155,99.18695706161404,49.18572662661536,0.6134029929486139,anxiety
566.3085127064127,43.53815124291728,908.436626947367,107.31889130559269,49.11126288851692,0.6565632722518617,anxiety
502.7744520350066,11.332352815393698,956.0191921634164,66.50208030863398,20.194304991026616,0.33892819177874556,normal
514.3796460487902,14.032499347094621,1007.9734278418201,63.29412706864592,21.07896187198496,0.32568529132291746,normal
512.4684430435765,12.15514717487834,916.274364832616,62.430027526018364,13.890023459756417,0.2845457273787865,normal
525.0343966285694,12.181891715192158,978.5107705736588,76.56498504874438,19.539320607455927,0.2483001255985667,normal
513.9683829845064,14.10486736260906,1002.7815373694435,73.13910312534279,21.63019225604703,0.3011268306843918,normal
573.7554182465917,42.34120364757895,916.8220219278868,99.38373435109082,42.59067038617755,0.5724072454339648,anxiety
548.3649609314673,18.28070833359809,947.2380287829109,90.37483477799812,28.205680184233664,0.4292437407247946,stress
556.4765453054805,16.430413819095055,907.0532933244282,80.37798642231604,27.6858923109816,0.509217465600425,stress
520.7331860945495,11.085339228567598,981.5728177707765,69.18479755193916,20.167198004650665,0.20362480820914597,normal
514.8256858826757,12.381239635059064,977.3246253123422,79.9087503238262,24.263928917538227,0.3991262218997767,normal
541.2419900066756,15.386543981465268,1023.4505436608453,85.89720694241022,33.295705429402126,0.4385594038283813,stress
529.0436533489064,10.949971854147485,947.1442567294463,75.86522700876509,21.55237317635644,0.24402226518095063,normal
518.9388708312226,11.879246017610555,913.2527384637482,70.8158750997109,13.380719020101488,0.3157613509023881,normal
572.2286750534714,37.226833124954524,1000.1867086855184,105.54915841598677,36.80567224258301,0.6861641865475268,anxiety
511.14585856946445,12.369665971397945,904.9735397351478,68.6803873234775,10.990147662103624,0.29086908461353106,normal
509.1174065016777,12.021311792259382,1021.0072917215723,75.88394662554168,22.066558115192574,0.346546694957233,normal
553.074295245308,29.659198988496712,1008.1172195987826,86.39749620862791,33.13857387499842,0.49257913406754505,stress
538.7833851105823,8.608442016611965,998.7706240810459,65.7181357847832,14.053715381961748,0.24106658774135997,normal
506.5173770832572,14.40088362147472,1009.6416014552026,76.51956425416164,15.177883127413157,0.3014119293477437,normal
554.335328379782,28.09041659981038,985.9788147763377,100.1359268494379,37.1914484831198,0.6510129593367149,anxiety
519.8899402356955,13.233265661233759,1007.6657906706391,75.69793954222935,22.688821595165983,0.3168897819514852,normal
500.48617898759267,10.07415684319193,947.197288391096,62.084496056166955,23.41141453799876,0.20382897359936736,normal
530.1817149633873,11.12204041070569,1010.8796684583507,67.60801097940819,12.851614746755914,0.3153404797715513,normal
540.5298938607204,21.28774313853182,983.8687724162178,87.24941427449488,30.238107181507356,0.49641926057594643,stress
521.9690665882448,14.07927583128539,907.4731563959056,76.07207070883071,23.478409070122588,0.30968383259871257,normal
511.6491656079217,13.237817832685607,933.8841813477779,67.63879279305792,15.819801399203042,0.35675196849682145,normal
532.1106103143841,29.87944120857965,997.1502254461092,94.95424126117504,32.8946801802891,0.45205035031183005,stress
538.5878354985342,27.99152318066752,966.9945827552402,82.57744190536488,21.602010560035453,0.5143318087471266,stress
532.0139810787741,28.34870064544294,1002.7529603586679,93.97610604974763,23.70441750487839,0.48372567758356616,stress
500.43350605921194,13.944369560957234,999.2442069699729,77.16683353598242,12.425071543554429,0.39952565948043134,normal
509.8939240697279,11.46602568909782,924.1331914657749,67.38106043521833,18.756591707711674,0.27106394969477754,normal
556.9105845764986,20.928889731467365,936.3758242586853,83.03440923737305,32.858464060546865,0.457318524168996,stress
527.3693210604863,9.884702616645667,1020.0559850614255,78.56167280652099,18.121114110213778,0.2135005093367644,normal
506.9746571601997,9.049421991441417,1007.9729877577914,78.81358490230681,19.60714063263766,0.23712934098024863,normal
537.132742503509,10.902368866089166,921.9665738914758,74.45628606416967,15.400756988514676,0.23433878154108992,normal
563.6363484161163,26.52871996369803,910.6803852438964,94.64841534984356,24.654627231568213,0.4725247127660206,stress
536.4271833884738,20.187091476156375,911.7756941283187,80.36007567267333,32.58280792856103,0.4558123382444344,stress
540.8653272509748,17.23874204612211,920.0784528223945,87.4435883285122,32.921685290319864,0.5304474527218257,stress
588.3297972356025,33.343285579514045,939.8036336594713,99.12648322338687,44.84844053599478,0.5529959398867043,anxiety
539.426018164424,8.97490450864371,960.3469487366632,79.966950227859,11.084747128869079,0.2885091029629491,normal
521.7057853883031,9.667279467327086,986.2379336295429,73.13560209448588,16.20464012377953,0.3607075318925207,normal
537.410814215333,24.191937533047657,967.9700051382747,86.212116023235,33.63879041655488,0.5162851808348584,stress
513.9302186809321,10.009266932224389,948.9150585426844,74.58346975098897,17.44388129323542,0.37244059473163776,normal
532.2242208672184,15.769407734718234,956.3187741793515,91.94365414184581,34.91495454028572,0.4972696835350356,stress
520.9902572652895,9.938143537030426,984.3819134572644,75.38446295676268,10.584940188623674,0.280905477114774,normal
534.4292233302538,13.56687118301923,997.9226148856674,69.61945779772248,24.361720285571444,0.21622983570724785,normal
526.4078950687092,14.26186558825864,943.6012132177146,79.34253230518341,21.705641853564707,0.353303009906517,normal
522.272050498334,9.334814044645666,1015.4376382428652,73.38044674658217,16.247566478558184,0.22856839296286638,normal
550.4232302983824,19.62702422234226,1005.5426911928217,82.13834832549674,28.233644474601075,0.4308691565484133,stress
569.6877570782704,35.30334056773178,913.1705146209686,104.2742753152058,36.05103043581784,0.6225815896846388,anxiety
503.724110712236,9.07345982181256,929.2702574549616,75.3102579798222,22.33802191576295,0.2615591663361492,normal
534.8584236075087,14.506704009734781,979.8036342043691,74.44141876405475,23.895739100951303,0.3754940093308964,normal
552.2713964371275,21.197587758115795,1013.7412402556324,81.20158589914404,32.132394852375256,0.4533936660205961,stress
563.0284380624266,20.319993074776242,1019.6975377301695,83.30731459122124,32.69186315795348,0.4219031528945444,stress
513.6426540420103,12.8576391112697,920.2769602005428,63.72202835692555,11.843810176980814,0.22208637268222053,normal
521.254185262726,8.185725427116738,959.4185528260866,70.6605773449228,24.640207349188202,0.3994364707805901,normal
563.2379668422027,15.85020648248753,949.6873166874739,94.12211356259098,34.83260811955495,0.4645519798558301,stress
558.2498465022105,15.429786413664818,967.4987660666558,94.94789463197928,23.849708107791436,0.44378667602467115,stress
537.4293228802075,25.64158296950962,1000.4306281175595,85.33159006046093,26.280427149915262,0.5060918367858501,stress
552.6312621936398,23.196878125921863,978.417135801723,84.20901219856874,25.896826973106187,0.45274748085128586,stress
579.8904006700757,29.765793411061832,936.2892321107586,97.63835425127994,43.021991994217885,0.6363688706683465,anxiety
532.4221332312733,14.142226038412662,986.1843683784606,67.89152151195293,22.72638068635787,0.2771195185026667,normal
575.2318643988717,37.96595054597603,920.2559517681514,97.16360031677155,46.945860839295634,0.5714592929085104,anxiety
526.5008913741593,14.233690965179264,977.6513198822955,64.8138542366501,14.534998740272407,0.3409108856054891,normal
561.2894776075315,42.878670213399815,1018.3786282530045,101.8895553231961,39.6555633366218,0.5746849087644003,anxiety
530.4647846131487,11.73422764383425,952.2933949323085,68.42496106588143,14.493485169308109,0.2128012693217242,normal
578.8806540318567,44.334122800369215,1019.8750442143534,100.77587083578443,40.31822313242911,0.6939618582192953,anxiety
500.66351315711427,13.925166042141626,922.4411421359767,76.63394087351547,23.591665031987453,0.2520473195970459,normal
512.1696897183815,8.427545718984046,910.2152496563644,65.9088955495484,15.763100694787003,0.3465398101180561,normal
516.7297214516248,9.571084002856624,907.6073537617228,77.48445049370352,10.022107331294672,0.213403307550242,normal
521.8684111737311,13.52419867025137,1014.1851331291451,77.73849800418539,10.864713732985374,0.27952247571057415,normal
573.7154332434216,31.939179007551715,971.5918217512387,99.29202563687471,41.68829929789712,0.5801367009528284,anxiety
566.6086261030866,41.213671406751835,919.3889055639645,103.59155415030419,38.977561117750334,0.6116690917389069,anxiety
501.05467897989007,12.060603454864678,1023.3634233290511,62.62978239795963,19.945707877051337,0.3875930462867789,normal
582.1388706739964,30.75022398767518,928.8744610526356,98.08822982267482,39.0757639834727,0.6685124874957157,anxiety
525.1759455254105,13.504415100908865,942.9163660906854,65.08783161683694,14.973470486007907,0.23073820856884092,normal
503.75927759363475,8.728760073892017,900.714073901767,78.1844041172312,15.686410730079043,0.37651197535446945,normal
547.7119254617495,23.8252833147473,985.4744911007336,94.23909659368425,26.528934194848308,0.5435702248809695,stress
562.4872089614678,31.65458953020758,929.9585582780346,109.73723870901871,36.464150571634875,0.6503902437626252,anxiety
509.75958573516334,14.438989314889323,1019.6747183580696,65.20315581924102,24.461176247351624,0.37817110699662937,normal
507.9869512863344,11.237743012932036,949.3017053473865,60.83902446863272,11.742084403007883,0.38888971653886073,normal
598.8308818657505,35.666470957192104,938.4691751843434,96.89165212517938,40.67473410747889,0.5567290836441576,anxiety
532.8744023716142,13.07336740070133,918.8995856529717,63.70660359057429,10.673669484934237,0.3193703753775519,normal
599.1473439777351,44.90843025850912,906.344522799239,105.12846256343056,36.502324962601506,0.5739499524050726,anxiety
537.658592351061,10.020856157394899,1002.0041754956961,69.42574334796329,12.014122763534132,0.3878136958900583,normal
525.2455450398905,11.16552558622865,1007.6218685204827,73.08349202948149,15.814732081834705,0.24447226094963406,normal
503.9068845602554,9.697293525443108,958.6780284297531,66.76535011988997,15.105806563817586,0.39607374818843705,normal
580.4105688383223,44.80570341169883,996.2087795542419,106.72193133132063,35.84938336066337,0.6846298489783126,anxiety
502.84754593840916,8.218281945428993,926.8757352112561,64.5435911404703,18.198657130484424,0.3629879457081079,normal
538.5289015776244,10.010672941578573,1001.3637638529077,70.24727555091582,15.295755874004536,0.23394568571538465,normal
587.1184968544891,32.41947425184338,995.2028125965778,107.51687379284145,43.711528754216324,0.5631125211806626,anxiety
572.4539257067438,32.72101871303671,930.2554174917066,98.90072060378651,39.422258575201504,0.5743766597946185,anxiety
567.88645851601,18.47212820647947,913.3975253626745,92.9963477530955,26.227184809891185,0.46755255786711897,stress
531.3063624313799,20.119779689250784,905.9969761700488,83.10226839700094,34.30448911744534,0.40791159282433265,stress
513.561191641948,8.126771286745884,941.7883938774795,75.02750172058091,12.143139420091176,0.270884989758611,normal
565.7766590331568,42.25919246626037,943.1584424791878,107.52460678524443,48.72934910568911,0.6110160622858007,anxiety
564.2602901340207,44.43690602650969,906.1125171027876,108.96008383343597,45.152300654450706,0.6577102241801291,anxiety
532.5518007882779,14.49426598236649,962.7615909921902,65.86977646416243,16.248487427234384,0.20600520106587858,normal
552.9228993618439,28.40925023163284,979.8445866764029,106.21280955119758,42.451151420089765,0.6738302262280623,anxiety
545.239650946736,25.385314592316213,934.7615093163752,94.01815821073274,31.946608422852158,0.4112343763002976,stress
510.3297755319583,11.788866050732771,1004.2680758488144,75.96760681036704,24.553856645890853,0.29851381415065953,normal
561.4165626184306,40.44304055231676,914.1317700027859,95.84320858189818,48.93145131808239,0.6904739996965338,anxiety
525.3411884304357,9.73942397870126,977.2478563618719,76.79604571271234,10.753390171959607,0.2602092155668626,normal
573.707897293954,42.74849070740721,1021.0806096499908,101.73556640554942,41.56647582482193,0.5830705721499055,anxiety
505.7957948836489,12.393956371499925,954.3883119795092,71.96450588127477,22.123528150138334,0.34109216605669723,normal
567.5326291460526,25.336314806223445,1016.5065050391206,80.30206773423934,21.05803456389435,0.5207761596040565,stress
595.4965079079859,36.66211514559796,1002.6950477961082,103.905269298631,35.2500732589945,0.6248451916331189,anxiety
537.624393322978,19.0226155161737,981.604675039005,84.28438982843365,32.99053512568635,0.41322016464650374,stress
506.44885149016017,12.16947118425491,1010.9572653515054,77.53301523656401,23.25197144479091,0.24840441599617546,normal
538.9204221900978,10.424421960561729,900.6125576358668,74.61641929961459,11.339342867883595,0.24830736834033637,normal
532.6466075533776,17.564046036312725,985.9843438789824,94.88771930242957,28.16386005522876,0.5143261880772467,stress
520.3428276465881,8.94090273857282,967.1207455773327,60.70622709880478,24.340707154178997,0.28680419454175177,normal
531.5847257117822,10.081443051607856,907.4576504824973,70.8139695328982,13.430151694054132,0.32474861697280183,normal
530.0949811775072,8.237621850100592,990.6006632696665,62.25160780823874,15.355440159550183,0.20287628921441703,normal
565.8225139252736,23.57993817425389,946.8520625021712,88.98948930509583,25.11866674636581,0.45904532804161635,stress
503.0345331243466,12.815200056105693,978.9470405887337,67.42344846875255,10.775030824869416,0.2907979822399398,normal
545.9807513834774,25.06906237843699,920.1699410730802,84.03196422545297,21.022799296481942,0.4454162692407951,stress
558.9839314739052,26.749469744340715,955.0688410564208,88.99039587563249,30.88057400352286,0.48961438638601307,stress
521.573689676626,13.11607232642551,907.48365841483,68.25243681697248,20.840604365473425,0.24288129659863292,normal
535.793094017106,13.21807631929031,915.5230382331163,76.93028677380556,15.209155585457612,0.25749233297945007,normal
509.5824756266789,14.578824865294326,971.7557506629768,64.41223905422423,11.664971481869722,0.24967672174864153,normal
533.0582986443096,13.125574204866929,944.0195419231602,60.84049350342811,24.402034066081708,0.2653278498851822,normal
589.8999017609613,35.75080287280693,941.3882980366549,99.11319333686221,46.92665423790087,0.6012355580547352,anxiety
526.5400707643222,14.478979590347434,999.9030989658066,75.53421113910362,14.142543367313493,0.34967117073314796,normal
554.605165621648,23.595633009285237,1018.7463241378009,85.73209212248854,22.837936885855324,0.5112349162700245,stress
546.3099242001093,28.932893247683484,1002.4662605578231,84.68284604853694,20.64650163422486,0.41769587254420926,stress
551.2581965675722,25.457455382069707,951.4383812846477,81.37132987725707,31.318540418086048,0.4803021652092485,stress
524.0446004697284,11.523920895983998,933.9297066189266,63.48218670668169,24.82053949233388,0.3348039838117586,normal
543.9007518125502,15.602082886280497,978.1315477308463,90.18599906743457,34.33172287157101,0.4415131197926963,stress
512.1845507669349,11.728320865185163,1007.180422980115,62.561914927324,15.782678571053836,0.2864037855189012,normal
516.968880369879,14.573473889590273,932.6259586689445,73.38400525876156,12.873894186022387,0.335506322776737,normal
545.9146281206971,20.685607280745526,900.0038091368274,87.778425329986,30.761974859178682,0.47257903282964675,stress
512.6768802062511,14.286380026084997,970.7556085832149,78.91396294000565,10.785325302812087,0.2234407811360467,normal
525.4971960599282,12.081290926787846,942.3147306256434,73.91798236337605,10.254214973343714,0.2642324305271907,normal
556.5409437565381,20.01601768483123,931.1090083864468,87.32266512966221,22.8481299364388,0.41790715170072956,stress
531.3461205096457,14.868303246191964,997.342051435795,76.91208725979814,12.445530053973865,0.3076045410727806,normal
564.9628709322074,27.40953224605869,1011.6327497890568,85.96690161393647,30.354842703510933,0.4356224957754076,stress
547.8685810903409,18.364778382802893,944.4690761622453,88.30207664314774,30.86043783159382,0.49949660642560034,stress
556.3057661187705,28.68602793900198,926.980904551524,102.87977396676082,43.54245887777864,0.6379353248171142,anxiety
505.60336060946094,11.67073188529306,913.2175357581908,76.12807234465679,13.236110187646812,0.28385433223320444,normal
552.8504187974839,27.220065070649838,969.9260262776974,80.89380646029716,25.088609917607545,0.4938150175249891,stress
508.6328410998737,14.27435072964784,957.473261431271,72.69164835100608,14.677957868753248,0.21482108451497342,normal
525.273488486792,12.93902620760982,941.2922372192165,74.53341984140647,18.476279686791344,0.3567476502150473,normal
536.3306354386661,8.818286284958548,1007.5119055191836,61.772008593592346,15.23230800954219,0.3260494438912316,normal
534.7483638203645,24.891344431229964,942.8396258617073,81.2236238841705,27.3943545748379,0.5091446706549534,stress
539.5258661466279,26.28596823455682,942.4986347530605,82.7791527550031,34.186245533388956,0.4474151967320456,stress
596.628335435298,39.40913482925512,1004.63279509363,104.6162915537324,41.83350172985163,0.6176695104696762,anxiety
520.8065400444798,12.958540837005243,966.3784563001213,72.72192092819084,22.41259479809832,0.36076097809669505,normal
580.1606531049753,44.67423166418304,926.1602664368738,101.40342091734954,44.4310102258999,0.6348777681116008,anxiety
538.0164593630624,14.938180382958835,975.1753642811212,69.64082116224165,22.163178715118775,0.20634875307459774,normal
520.1071609291545,11.80487002779792,946.0088066100907,62.94905053412568,16.11314546548646,0.33329260950536715,normal
524.3825733591959,10.68723854961248,942.8959390758234,68.80397995910981,11.164740020074076,0.37906921783063385,normal
543.7354680871058,29.60700620035724,938.1635922563505,93.60562940622533,25.17525259886849,0.4712650511037581,stress
591.4782915714185,31.329142617488323,936.4456783026118,103.73652615332443,41.07795713862995,0.5996372148670293,anxiety
553.1156445077636,28.060326831861587,941.0876751233034,88.45839381583103,29.31995936233561,0.5154619934285631,stress
566.4242286885768,19.87816794414317,970.1523738760478,88.32097704923531,30.805759978796686,0.4820015897345968,stress
514.9845045850589,14.117230542937607,905.3831540739976,69.884248945006,22.166856549002063,0.2627653616448831,normal
523.3347506038864,10.924367475171337,961.623471880323,68.86760028758376,18.724334394837904,0.31986042322788755,normal
529.5158766678308,8.157285158240821,931.840294397343,73.35839997607255,14.543735932497889,0.35034939847916813,normal
532.6888880080486,12.083742563362843,995.9106675851385,74.5587861394753,11.076637093397695,0.2713771950342221,normal
504.4020769811071,13.187844545030414,927.1825344323975,67.10986020882714,15.380732881255202,0.2917881033193641,normal
566.6213346087183,26.664461324161447,930.7063237408584,104.15564089672537,38.78484116395618,0.6795684434447504,anxiety
567.084951274578,21.048116341998785,1010.407655786053,88.57411474224416,34.34437822270042,0.537647091685665,stress
512.0351323926708,11.519042730647353,990.1689646510222,74.15361869481832,19.204061713561877,0.3076663886511427,normal
593.476683590749,42.06634373333172,932.0053477535034,109.44098875791708,44.44525392888804,0.665459712744532,anxiety
535.8844103981031,11.955932285124462,930.8405698008661,61.379160327128425,17.450431342269198,0.37526388662846233,normal
568.7970610138076,27.504660157127585,971.5332689625899,82.77257596920538,25.650146606441936,0.5331203410319324,stress
531.8317067774441,9.553805133530647,954.0123310368037,75.4402495261998,17.737928540684923,0.358311640518274,normal
514.4076256564505,10.780284707329184,909.076294547287,70.46659262389483,16.96142739180256,0.3083521928535127,normal
504.1249547534373,9.295930501870338,923.7915482651241,79.53600657021319,21.88892674432575,0.21345118279347358,normal
512.7201389988745,8.465473871567443,1008.101162257433,72.39178674919681,14.490933825575219,0.21250525914856916,normal
535.0935741352392,10.419871954527437,932.0085456549398,69.65937744170711,16.74024613059463,0.24999138927952425,normal
506.46514856378457,12.034018521167692,904.5472569397593,78.12509161042072,21.229678511893,0.23877261358737856,normal
528.2496890862599,8.457494385592597,1023.0679542676385,61.57938324381657,21.41511885243088,0.3856364196227903,normal
517.1273659326926,8.597447676550507,985.8856180760444,61.35336723800003,24.351997232264292,0.30002255041532544,normal
517.9378208791328,14.47673822190966,983.0163824445756,66.09502190772267,21.574403664679117,0.3132361382450142,normal
556.6847827199718,26.73934040511866,955.3444686383336,97.79885145309751,43.94065393216471,0.5872431219446269,anxiety
541.9976827910809,18.897422069104493,954.8121441954593,86.11048286319249,34.88203459217874,0.431761879307863,stress
559.2022386025106,34.53966785235308,945.4681810831697,108.0454382727745,44.45952942474621,0.6170311292800659,anxiety
542.1314356339714,15.899149512919625,906.7661106270547,94.484584629002,21.31169752699828,0.4757367176875209,stress
553.9857536593643,26.00350700639948,1004.361128935304,102.03537409576825,38.99152052805963,0.687513400467812,anxiety
520.4298921031026,9.145591600059932,961.7762688401892,61.297071889659364,24.967312835229674,0.367698366768605,normal
531.6023647620278,24.531215352928648,940.117771148201,80.73042272599895,29.9347060809608,0.5025805187363548,stress
520.2100948979142,14.110620851134858,928.1053938761465,68.45096856623888,24.155523892303314,0.3997785224066581,normal
562.0392280161346,17.34302261895899,968.4934010893371,88.32700680129783,26.26092173493722,0.4249382995524551,stress
551.8678272828852,21.169559580993468,980.4469078837639,92.92497327048652,20.10473392820522,0.5000391171188021,stress
548.8384100973893,28.95597630253988,939.1558707549375,91.1340708837843,21.78711007994072,0.4229716750125935,stress
573.4278497295568,44.24116997882703,939.2961130773575,98.6698258190707,37.62171927312401,0.6128385437189379,anxiety
533.9689364197671,10.346380691521306,1015.8005021734602,73.27579372351178,14.700218763777148,0.3464802098116758,normal
566.337382075175,22.96941027526398,916.6874571209094,88.11905166412517,24.69379322043234,0.4083611280381163,stress
599.2327238795419,34.056496105686534,962.7347992181528,107.58259005147906,46.06147162140683,0.5626319516765648,anxiety
542.5551230606011,26.402413946852384,942.0738531463863,84.32276788939294,30.133801603511582,0.5281821089803271,stress
547.2493547916623,27.275706371693026,959.1280208389074,89.94540805584721,21.167847794131543,0.4656575237400312,stress
588.4530566579862,36.596591520954505,944.5997695916604,97.88739725953741,48.683123551722886,0.6378712591322866,anxiety
539.9867581096092,15.628728250743864,998.2317081554079,87.67561170672052,34.17536096870853,0.44498463894918044,stress
595.6400400203931,34.43252730390523,955.1443843304337,104.71013201559637,36.95480649758504,0.6123441673043732,anxiety
534.7956437389084,15.520090563390996,914.2781261210049,82.6161390066725,27.248481138131528,0.42482496619954835,stress
511.2813829028523,12.818816774994152,986.1979247019017,77.42408964526103,24.409404632697996,0.24867933664370612,normal
558.4010026096339,33.63614190215554,980.154514528283,104.60670910989879,45.62875318651738,0.6707678813131998,anxiety
529.0287803355344,9.077271344378985,980.6249354573711,66.90446285603385,14.55913768382541,0.21247881371965546,normal
528.0993633594844,9.273496913466898,950.456587129636,65.17241669776078,19.774596407159148,0.31213565898779,normal
549.0940159248961,27.703308366434293,964.0191291005116,92.88667636470375,22.98829528755615,0.4018004540909024,stress
539.465583140047,13.535062153872744,1004.4121285026763,60.693405334529665,21.31397460020534,0.30553549324433904,normal
523.3462444740348,9.543403463491227,903.2006764617364,64.38137618203716,18.086418291040133,0.3725993662717744,normal
537.187906093703,11.301033319851108,967.9014546430633,79.92668675254495,16.724785830541332,0.34281054467562533,normal
550.9894255064573,28.46946970271683,1008.2345682741424,92.45934140647687,25.35788500989567,0.46505414969805703,stress
523.0761553850543,8.9859991426586,960.6169759518581,69.27864973376673,10.065449044754637,0.24907046283324222,normal
564.0959177798626,31.09806248770127,939.7709642066349,109.61658965957713,37.158019495149944,0.6382646860680179,anxiety
541.4283027064356,23.259950691612772,906.2516799266739,89.38476184140914,22.74220082808839,0.5407096209352198,stress
531.9845749335535,21.00318413774508,1022.4296836638637,94.35080650834024,33.1891933423551,0.5106891653498201,stress
527.3202709366543,9.504582650135298,1006.9868376153604,77.11474517811573,16.89497305603992,0.3323937889587737,normal
570.9667340209644,35.09005848109672,916.5436256048777,102.41556216568637,42.11800343933661,0.55254536939732,anxiety
549.0238476728804,22.17792554879284,1001.7404604755541,87.56683912504033,25.28490581378809,0.5251246162312663,stress
519.7007077527545,9.234708905543563,982.691167935717,79.44010659263074,12.50429633120798,0.21154643184502345,normal
534.1781807240061,29.826314909452215,973.8084868572058,88.8198744419575,25.653003205207828,0.45696061072324734,stress
536.9398420142008,24.052932097516816,972.2565917187405,83.55385990845085,20.707950525460685,0.4697554501331365,stress
506.93177280283385,14.639173148735097,1011.3557880697983,72.30596050139604,24.612916657245357,0.2010626951336692,normal
553.8764276218662,23.10444797685461,990.3884608130395,82.54830609828586,33.09564720522805,0.4134639250840236,stress
512.7725455036166,9.548466092737215,1009.1298068576208,75.07923807193568,13.710104737286251,0.2822383035989172,normal
581.1752655623668,33.56703601137693,967.5553345742362,104.93348237494389,49.784011009292,0.6928396021800058,anxiety
568.5344128178415,15.59087750539229,907.0713373364488,88.22882622582033,29.731206708425272,0.5124054154967436,stress
537.6092096569982,9.163983581292555,1004.1428015554733,69.00701957810826,20.61582025401291,0.3643661893170719,normal
522.8024468035746,11.953887932838315,926.743718897317,73.01946934301908,13.179910820479872,0.2783718746376052,normal
530.275118488786,22.38803071071434,951.1226862511265,91.02537779284735,23.49092523373328,0.41026610638639394,stress
564.8267613650207,28.18995323517711,1017.2946558599788,92.58719912106129,27.50868976146247,0.5044119792350559,stress
548.332943783503,29.371770133791507,982.0674885541358,88.60798774515645,32.03594045830449,0.5201408082312146,stress
515.0233181055978,8.137973764280549,967.5166481471454,69.27862753624666,10.220400829824307,0.3709948039122949,normal
533.7950124387781,12.165545514901783,902.9311846697457,65.5855217690882,10.658499139645077,0.3521702661861564,normal
529.4028417521554,13.097321293425225,1022.485404506646,73.06325581062566,22.806773825570005,0.2067352807748928,normal
510.608094707269,11.76176922056546,1022.342135246897,68.37586638148323,15.659770809447892,0.23314963539304415,normal
585.8838078896749,35.76440203736951,961.0082144495783,100.28721570415027,47.2393368412281,0.6424436122531216,anxiety
540.1143247300045,27.98343574758305,1020.3965909509727,83.46621279311745,31.54163869132335,0.5105698620934959,stress
501.72639647802305,8.294652327454534,1007.6390295733238,69.75334137242528,23.388373412297117,0.3219394850305232,normal
501.8121603908818,14.300130492936736,968.2280912273765,67.15596530650883,12.204440643823144,0.240450836104907,normal
506.5046775737957,9.217266744536412,913.1024208484563,67.94030082474383,10.819516300014584,0.32452610671973164,normal
538.3016374482281,21.04815949775734,969.015725134267,80.66098792355572,32.17919351956825,0.5035070332614174,stress
583.0671339472362,44.33937029236631,1008.7638176754142,108.67677668572657,41.164138285251646,0.6898400325881457,anxiety
576.9181551050511,33.791258835457974,995.014438622287,103.19714541538065,47.34505361670402,0.6421749190382788,anxiety
565.048315981581,35.710849461955966,926.9641635949373,103.9652350328519,40.74250092152653,0.6434431066275073,anxiety
537.0049256052141,16.051622094618853,988.6251353542525,82.76688576589825,32.88047181866861,0.5221575881003623,stress
555.3311809468299,34.61119881672536,1011.0489118683618,105.65527251068498,38.985283472993956,0.6643541820560759,anxiety
569.3426882605465,23.342860389450173,972.7413658671742,93.29256941083989,22.851931494780587,0.41274494348342,stress
536.1796881601971,27.367072764068237,980.5737177987731,92.63248064975572,31.12966594270979,0.4120871218429771,stress
568.8460362947314,15.205236221410217,999.1731371912772,91.17822114036252,34.21669546953845,0.5265990207913037,stress
505.3606091380256,9.110235737051516,1018.9875038958081,78.04906614571684,20.93471592483725,0.2547280835721544,normal
571.7265481652248,44.549131263676855,940.0284143875334,107.87900160473747,49.7207500136192,0.6053087733206269,anxiety
537.0635050064598,8.748864471788709,954.2627873828686,75.77970319841586,10.171269751811105,0.2978785074813178,normal
556.3487055490809,21.412296811354018,936.7443994355752,92.1779918601557,24.806019292103223,0.49037037556859,stress
513.0073328810698,11.897340251097509,964.1962437797042,69.2311494883958,24.714810672440276,0.33602237708939453,normal
536.594575608818,9.24625176808826,983.4026626599157,70.46781822748733,21.72735795017403,0.3081810007676162,normal
567.3282035103723,17.445286707223293,954.9361795858648,85.01289071259664,22.07557392080835,0.5207645968061703,stress
529.1286539444744,13.520180478571715,973.451440745577,75.71303236160463,17.509364021056268,0.25847662208243866,normal
533.5331481884455,12.586693864473151,985.8280063700723,76.47580768442589,15.564115122366477,0.23349821781882155,normal
532.3358939246584,11.131886567764182,945.6972666217464,73.12957214663005,15.842228423536305,0.25526382169317074,normal
538.1620410903489,13.772766761476044,1002.6146990502924,75.02356095616837,13.979892063332004,0.2421013879330686,normal
527.1025744736913,8.77442215868645,1020.4529916611633,60.483835277827104,16.076540417913495,0.3310347429048676,normal
531.2185474523584,27.663184879292146,931.5556851206643,94.84258000076484,25.750957115873884,0.5389089339727399,stress
578.783262649871,30.636500065909438,957.0808022797029,99.67479374981973,48.364608270360556,0.6578048898959193,anxiety
554.9747334436482,35.99434510326622,954.9864487516695,106.03880609560923,36.55212595469877,0.5512928503887671,anxiety
552.487552442581,16.223980800072574,968.7811910737576,83.48337036352015,22.117985953057776,0.4393612564733953,stress
560.2401204528105,44.21492605542711,958.8299293542495,103.94519746245163,42.54313280098377,0.6948414747071325,anxiety
550.0607184140066,18.39118606515844,1013.0060595697502,88.55430408097085,33.93211941031828,0.5258649548199418,stress
519.7518238545756,12.274340297091427,924.8186302863564,74.6614259205935,17.384882200017728,0.3344920996050058,normal
500.58178662671526,13.204557794041254,960.5419009907005,69.72000987595206,24.677882025837107,0.283721454983666,normal
537.6183433741165,8.091661196118336,1020.2690937173015,77.01232115682276,14.470783129591648,0.2831550207046644,normal
560.281924587945,26.287025063797415,993.7754701363818,88.51086416234111,20.533853462097145,0.4512461669035903,stress
534.4945483498698,12.438039921697278,997.5760198956566,73.45933244788864,15.765325577862022,0.37790386220875266,normal
563.0743424389101,26.359244674132512,993.43054172179,93.1146100120562,25.537042907138066,0.45127735628758875,stress
504.7010498710842,14.115739799304372,974.4736973367166,75.47759311460312,23.001555317590004,0.25505764269037207,normal
522.4375188614155,12.760985402322103,929.9089807423431,77.4739718693269,16.925742157196787,0.3011017520779728,normal
584.1557142861524,26.933891195751343,903.7638718860925,108.92833299341204,35.58509631144227,0.6701227149789625,anxiety
504.0588617146413,14.540569103383104,1004.6771356721804,68.9947968490108,10.702778627914046,0.3717528558698945,normal
514.8807234317113,9.905015960609738,915.9208918923115,73.41464623811669,18.543096693506556,0.3776236377868072,normal
531.2977378418875,21.167857138042365,949.1427655617794,86.00469254259491,24.470993017550065,0.4935069348939861,stress
517.1597610950007,8.95773041643273,909.8480017546343,77.2912721904534,19.33514896925869,0.36897426955104584,normal
553.8432782095323,28.291291632202743,980.3809501321729,87.82065532210612,32.86295911627886,0.406224598826486,stress
558.5901310577578,18.87887386702176,1002.415606260202,86.0798804097043,31.452737655023185,0.4632568926288875,stress
529.859656204721,10.793018927090912,915.1416293372433,77.99666691374546,14.055899295767883,0.20039842704381405,normal
506.2407456176975,8.844451097704205,960.5917556101786,66.99406459491699,20.15680959602514,0.31434919662874977,normal
536.5762211631552,19.459308064219897,1000.9016946215562,82.94441453466601,30.59557995214994,0.4839616992000513,stress
548.7227621693717,25.161571068424415,911.7079433098996,89.68358272141143,32.87759681827332,0.4914719142322176,stress
595.6614843139636,35.20920262692883,937.7077348604392,96.37029864085333,38.52546948217878,0.6838703640928017,anxiety
544.9819297351833,20.60186917699058,908.6048666521187,91.45538404025481,27.292604811573245,0.41035554053670625,stress
560.1547233083966,20.061814184463437,987.0613243101103,91.7031897280345,25.622373865249966,0.5096875884021063,stress
504.54230368798517,13.581982151248496,902.379842326059,73.57339913345129,17.707816963101514,0.21654736712363798,normal
567.1452224846157,28.563649371113478,990.5474930018989,87.25703809790971,20.003405573273835,0.4670089703053961,stress
539.477332996266,18.340141186846274,939.0896898965319,93.83651425484186,24.47408681351184,0.46672786492413115,stress
501.01676506976384,9.080539006919416,978.917350943411,67.10769137371479,24.711090153751442,0.20166398844543842,normal
540.3868335580165,26.692750521360953,1002.7263951964349,86.87777843280523,32.31875231839557,0.4654369039535736,stress
533.6944211244552,23.24802844164308,979.4797254842459,85.36716874003389,32.65819116846394,0.4308970053815443,stress
524.883468009115,9.81862506744912,1018.4615011264871,68.59862154780296,21.016658981133872,0.3978902261930113,normal
515.5680671493665,12.845935951624966,908.3839578854346,65.6007465910098,21.359653107016584,0.37160465420144584,normal
512.3811046514531,14.186501194743979,938.6652005025721,70.25335451912832,10.000174521330493,0.39944757998072056,normal
520.8027208471125,12.753716234011428,904.0332462569153,63.94940979719875,12.919357550573078,0.2693048335905437,normal
502.6020637194112,11.581742094809663,926.4249832991103,71.64845316414493,24.760197448156966,0.3501879596726637,normal
565.9354586633614,20.40711757712331,948.5760638697225,82.71177725843569,23.503510416029165,0.41819544970083017,stress
557.3546580734137,15.674952318531366,926.8252644262226,90.93964700715809,24.109821492049576,0.41788156642608604,stress
525.6812658461715,12.95067044019379,920.7131965797178,65.23411367471812,19.443365453376046,0.3106742379499544,normal
537.7163881565008,10.511813388864518,1020.8743521062011,73.52935874452724,21.06804277842295,0.2400564035735252,normal
520.5693775365445,13.232296566936295,934.0026850912351,79.36977555188767,24.338782434329786,0.32834687945971164,normal
577.9609065884229,44.7624815190927,975.3082276823402,95.59921959929142,47.32206879164286,0.5806384701904594,anxiety
531.792452141666,9.572233760579874,956.3877420985986,63.9619526551948,19.490678181229015,0.30384491415604103,normal
535.6105513556366,9.621701909684104,994.8364153119715,63.92195425476786,22.53738891865774,0.28466702883063955,normal
543.7583074623075,25.085757649375555,918.7776069818755,93.35987683192764,23.52131632587457,0.5429680171591207,stress
532.5787393035574,11.474563730408654,975.2796604750088,73.88301147019662,16.683124581128364,0.21767698939690375,normal
511.4616500851314,8.696089749315416,948.1812045575228,76.44206321200451,17.3929687667117,0.38035480570924574,normal
526.9007382430815,14.408418083116292,969.1651437538831,77.45507679132255,10.135577036189382,0.24640363606176216,normal
554.3327800003109,29.854984556904725,1008.3286975634147,84.73045614899176,26.11667051609244,0.4074408862524224,stress
516.5047070764571,12.862875295980988,1022.9157432190714,78.1439006141166,24.71715597687733,0.3795838373915332,normal
507.2752033759658,10.421181398670697,963.5155181807717,68.61058676924415,18.290606135778177,0.31354546358621094,normal
538.9757923066467,13.457091314967272,1019.4262738370576,62.16051508261383,16.37842278156541,0.23933071699059175,normal
514.5451840951717,11.073944359991529,908.9526027134178,69.96511364526907,21.301418833854534,0.30428980483337603,normal
533.1495003660772,12.24042373549821,938.4848829065231,63.54857538939414,19.351089372391602,0.31980891743007633,normal
538.7951530683056,9.63525425734937,1008.8688157351886,67.69022655289625,24.196847697256082,0.35582051727915737,normal
547.1994085648424,27.493945733613423,949.8513748941418,81.15781295339701,23.784721042027293,0.4446965853243766,stress
500.27808522124764,9.411391240334211,981.6797641621087,72.84651051810455,10.132949276702034,0.39029814203535745,normal
579.1653624092103,36.52977806279732,979.2314147246873,103.69689265749433,44.55953234807036,0.5574790219598746,anxiety
523.7652286140855,14.22123655908284,917.6389217172123,78.1522200511311,14.879427010345466,0.2458731554075345,normal
567.3499769200588,27.741696093386032,947.5187053774592,90.0756328886609,20.59717159168631,0.4865211879457384,stress
566.3110253490465,35.87574140783494,1007.5950601419856,107.19276457305136,47.312735138946934,0.6109694076928108,anxiety
511.23738038749525,8.712477308342827,901.4409469486045,79.69339479049016,19.30990719736876,0.3297009640237376,normal
539.0608650414442,26.48045045787061,915.4188843374279,93.19628603441515,20.19843219357941,0.47535577299581433,stress
507.272998688284,14.11505036874744,986.0165959969046,61.64343334952855,17.58182676865675,0.32425848980992206,normal
526.8854218962351,12.340509291499595,1011.687031137396,72.85130399070383,17.838648990051176,0.38725612429378536,normal
504.88152939379114,8.140498384444085,1007.7092728264957,67.44334047675027,18.305672280370167,0.2358729364024421,normal
511.0952473192453,12.254157564152013,949.4342154437668,64.13985156876853,21.5668422377783,0.3761946011279315,normal
511.274190990936,12.177899942418225,967.7904791765446,70.25309506290105,13.137781981118916,0.3397897656974771,normal
522.2080324639785,10.80595991734548,916.2283339290753,69.92922304710599,20.239258318351034,0.27075783174728724,normal
541.5178137070397,17.901530144347237,948.0220270166803,89.38522868392029,23.729073269199596,0.4952985020062482,stress
513.0159879263707,12.138928050214504,904.8785990428952,66.94686652517686,15.40350878200642,0.2330568980285915,normal
532.6893672036224,19.34159282429232,909.8307552942678,87.77116247060518,34.30104319073143,0.4887575453338601,stress
537.5799576625676,12.107887826146154,914.5462154313369,77.22739992726872,18.36563239375066,0.2537067512135215,normal
567.1637744532225,43.798487457714174,984.4789817060218,108.6772785430917,37.502728673083666,0.6172128230924615,anxiety
528.146314375201,14.400091645923492,984.4586138916578,74.62992980680724,18.167234992003944,0.3517430642327842,normal
546.0962503719725,22.949108803953493,972.4833460441728,83.91999526828076,25.877163419257574,0.5223618070939182,stress
540.4419410493939,20.96526621649582,931.2866789566413,93.19402245067643,33.810371011679294,0.4640657568040515,stress
544.9003572621386,19.072380038140672,972.3081471683483,90.038285448873,23.294523928918537,0.43782593162432953,stress
520.8897304021922,9.434890067910747,982.858387020822,75.85708838067679,17.78548420194323,0.21331294558284458,normal
557.1399987317055,27.524208085416056,924.3344688715646,88.6753964467481,21.10046101189404,0.40768951887639976,stress
515.403909144077,13.249723292794243,976.6130577849506,69.69392574260094,15.530607562971928,0.22307892843578347,normal
532.472338427569,20.620829557610648,945.237986305767,86.275843000675,33.72502306621291,0.4185174798715533,stress
525.9684120846425,14.888584284395066,963.9442490343657,72.03846862030264,14.2371811596554,0.2312413137373244,normal
519.7050041716344,10.454982708161971,1016.1827700558517,71.43544704096644,17.589368616023975,0.2334714064473562,normal
589.8902340670536,26.84899034074133,913.9372313698256,101.71957484573285,38.17260123922652,0.6254830622287951,anxiety
553.105270173777,16.54263888236215,921.9670368796055,93.46078576195572,34.02193276239175,0.40550694152246003,stress
580.0396074669809,36.15377382370905,991.322673652765,98.95327219245166,41.79325040623267,0.551119471062583,anxiety
511.74367377057973,14.62280823493543,997.0158000232259,66.60430129742996,14.734410156450249,0.33772632586157514,normal
503.36559859980196,9.067773300399828,920.7847828197514,64.93957598144,10.814980522343557,0.30062649451030804,normal
525.2922332237432,10.182054474568837,926.1221114367027,68.19809779392577,20.606297159000473,0.2043826657550018,normal
516.1393146484959,13.269016476903488,999.3906018734907,62.411168328073806,20.41893140879928,0.3247996971057965,normal
553.808513365075,21.391818569283462,923.5520809207376,88.63390142960122,22.51721893469043,0.4058897577472991,stress
536.1021162671826,11.793306631648507,940.0980737023245,62.21441186652631,23.618481906694292,0.21898358736433396,normal
542.7019880103036,29.620358940728273,915.5681739474112,92.48917659989196,29.94719373462813,0.46028144068551097,stress
502.95186258941595,10.690286530117772,910.0339910983553,74.87187832353119,17.463097782191532,0.39218402938576497,normal
544.5023918623638,25.147256242809064,1016.0562187828214,90.12339804581232,24.33452787381588,0.5110995371599939,stress
566.0965213314441,18.60797377770223,1018.3661751784925,88.65675623581859,26.052214535404993,0.46530944850996275,stress
509.971689165955,14.929721626729616,1008.0001713445146,64.04961120330475,11.63896315464432,0.286880663801322,normal
523.5967074741853,13.725769168833436,940.2598149343675,60.87478144617895,20.517547923853897,0.34500121525982375,normal
532.2733895706906,13.733716223719398,988.9821229416139,73.2996980695199,24.922289409489267,0.3333694782611316,normal
538.0285722563966,9.95013237322371,903.0487776408913,74.75016718918013,11.075678332714766,0.3593362794382745,normal
568.1701965999714,36.41707872557523,982.1274212789082,107.60522266382762,47.295155041706884,0.5818121856216066,anxiety
585.0548793682135,30.216984919241778,985.7637818446915,108.72252424995317,47.240851356714856,0.6940550161933194,anxiety
508.51856646035645,8.902089072314116,1004.7002782597124,68.44068520255279,15.180129283673317,0.36447624223707087,normal
534.5241370350237,13.719504496644959,976.6513110554467,73.7777060410018,14.136513523770354,0.3473070456669585,normal
500.3678820646652,13.15510964937306,958.8542285929769,75.18796524835928,17.66693708855845,0.36758167497036076,normal
538.6252813229823,8.750204079378433,980.8066863466097,76.23539576180275,24.417032281113894,0.2555705552179425,normal
567.2621965723793,27.36525670874024,972.1353442802272,86.44510045032722,32.412855409307255,0.47913819599082486,stress
537.9919965316769,12.872144326376546,976.8289064073308,62.27676786953203,14.562980794544213,0.3694775861142748,normal
535.5081673103319,13.911845789745492,966.4426328746621,71.96714968595518,11.430989159698159,0.3249228096229063,normal
504.44789929224606,14.985538773733362,910.8677005987159,77.57957800564535,11.527055244243053,0.38833839733160613,normal
538.4476225529565,13.033321336289719,982.7761875121423,72.68284276591474,17.9448958591843,0.26490236003506845,normal
528.5297914889198,10.978055070314918,916.4567535013394,68.02988631722576,13.048346366291309,0.3915162030167635,normal
503.91336642604006,12.035615328599775,965.1202595747154,77.16354106314327,11.134075609251262,0.3308265474055747,normal
594.9624459144601,37.11793630358966,976.909121271179,105.237675951743,49.699331710374175,0.6003110220244521,anxiety
514.0235023522639,9.125319272338157,918.606034422054,71.54399773469102,22.848058356218903,0.2916862848262876,normal
524.6340039220887,8.076970800609363,959.9596601932707,76.43273795420943,21.719827836209575,0.3432794223916198,normal
562.8392406919656,20.95488243311211,949.7812606070413,91.24789896932403,20.00896908252193,0.43883564121897095,stress
538.1571430801035,12.644761604116974,911.6436887578878,71.2244557656505,11.580473833762847,0.2857888666860289,normal
508.49356442713105,8.572313223642103,998.5563840449912,60.41889922061826,10.413050798041983,0.27059170069047134,normal
527.8389682437479,11.052885703947217,900.9377964972896,63.04208566444546,14.497007913478537,0.33233685767997134,normal
535.648941734926,21.265004937254922,978.2905404299831,91.76608209819196,22.979474207928035,0.5471886366086915,stress
507.0975817511889,11.043791370226224,950.1355272449322,75.32129553070605,12.953885566801425,0.31146743391460163,normal
536.5296221022588,10.861139197686676,950.1133998847281,77.55660156304081,12.988229123410797,0.30713131986951575,normal
512.8312025988695,13.337210800184835,988.7622956205789,63.689525062672786,13.485764845840718,0.3854221257716855,normal
551.2628861074693,26.012268885624692,954.8795908956691,88.62590860188222,34.33474200899734,0.4054691576238428,stress
575.0972702565921,42.35959253461806,1007.6319493949911,105.25144122735905,36.40339110368503,0.6189344466258283,anxiety
549.4906141640021,17.196543849042243,912.8258302426999,84.4491872323564,30.165848618019808,0.4220744876642418,stress
562.8278464306711,25.10758347405007,950.2724303172552,82.07187939710371,33.322870244919564,0.5380803827653833,stress
523.372572476924,14.613124156039872,916.4330594199891,62.80048195106635,11.035113889192244,0.3166381608554195,normal
583.2369602455423,29.487659595995908,967.6330658262524,98.53074892847536,49.94336739566958,0.6467725124951355,anxiety
527.3892469021552,14.964354758525047,954.4994493904809,78.63507438865634,17.837652716283827,0.3794731731581864,normal
562.3362295557477,18.4999923397399,916.39027756148,84.550783154437,31.09203849858091,0.4159240530321201,stress
514.8063480102178,14.727492222286186,955.0250271937668,62.295377437384346,19.66223832213874,0.33928596140722145,normal
515.6897618039893,13.824939245704194,991.4322775960871,62.46006590247491,20.905851424230853,0.3148575150180422,normal
580.5181503909079,29.5496320738708,971.4915787539413,96.92524889922042,44.65143424275996,0.5887450643691389,anxiety
505.4548590234708,10.345831979813994,912.1622400172463,65.90081415308313,15.034156814047641,0.21139574539947367,normal
567.1657886884675,21.257901278468648,915.9124069114068,85.2490678035607,22.08881106177056,0.5364322709518208,stress
509.6740916360181,14.630983377282707,956.2699031315713,74.59016457304793,20.709289487598845,0.35785856966393714,normal
530.4324433454078,16.21844452210009,925.8950360013291,83.70285541393599,28.333243548284297,0.48466248816696217,stress
540.6198562971629,18.507192496395962,976.5211371091534,90.9630551866424,34.74109311365579,0.5267559473344964,stress
539.718591844772,10.994411936151035,937.780213248157,72.01302133096712,17.14503599951648,0.3605621869649001,normal
535.019451871966,17.71774918575124,983.3909005715325,88.20393313978215,23.731876831087657,0.4513198900167843,stress
524.5366078374316,13.710831874934325,918.8510817879524,70.14823877435617,13.456249931760249,0.26705581001565915,normal
501.80909155642155,12.521420689321209,907.9619081973166,76.83997105780122,17.33346747688677,0.2151167227708134,normal
521.108044363452,14.914056728152222,997.9637741020756,79.01062105172407,21.705482545103223,0.36763099499772856,normal
528.1631907239689,13.780717253953338,956.3427894854351,60.23413221461808,12.92860904434738,0.2612926936085641,normal
568.3399160323135,26.37507812844975,1019.8611553911173,96.68754695789947,48.43723597340292,0.5715814233084671,anxiety
546.4478995553018,20.918584729783856,914.9354701595742,81.99773188501285,20.584367695226963,0.44917642568287275,stress
534.0454668606743,9.4693391516691,1007.744218075361,63.31549080326552,15.547198839807649,0.3211275778646823,normal
505.57975442608165,9.465445263356973,918.7311785808316,62.42772836318813,10.35028144492279,0.2865533759198525,normal
538.505936587117,10.865881565338682,902.2608402518688,77.8797942001574,15.576089423594954,0.20167273637537142,normal
504.7527166507229,12.392538242528591,955.4531150225996,68.69191921717423,12.62832658158741,0.3297277913537631,normal
514.7113253087701,9.061724158129259,1013.1330548564697,62.36672381846775,21.91773316736123,0.2887838909012756,normal
531.9318071586711,13.011805601931783,1000.1728968007161,64.77592422763078,15.516789816342293,0.36866523355757663,normal
568.860089122882,33.11290518894475,922.5386861223881,96.94785520126821,36.325954507201374,0.6433820485693422,anxiety
535.8886303181331,12.10360882411758,909.1135966689216,63.17816335338707,22.059377613287804,0.3827576887746519,normal
532.1392372153939,11.46843921344339,916.9185293170349,78.76609636896966,13.629656954755681,0.3758371545202496,normal
568.7889453119191,15.243005960092008,909.943157844702,88.46885958400195,28.169463066607037,0.49874611592590934,stress
522.9375155249314,8.275987679579542,940.2173853863065,79.25620714148052,12.44049615712849,0.27208536542829725,normal
524.8053039120615,12.54752654294658,962.3181934814669,65.61366431031948,20.404270862106927,0.32136939110802787,normal
517.354065969519,13.808192625950412,931.813785178969,66.28700226367496,12.11204423339014,0.23129534320072012,normal
534.6633229822279,18.449906309448608,1016.622490157046,80.3384676755802,25.183693788062197,0.5286902370995994,stress
531.8074477907481,9.815964034019046,975.3802315063872,65.53808974755617,10.263285450499433,0.27391483988535464,normal
550.0510257850292,19.07997908016534,910.5469918006659,80.06281165441936,29.064694733604796,0.48309898832546966,stress
516.6964401259512,9.14986058551695,968.8650803162662,71.59967574856262,20.152319482860932,0.3610180636991326,normal
531.3964621062489,29.67532180585285,947.117405791709,89.62729275202153,32.4306347572701,0.42931870005526,stress
596.2320895564318,27.58142493861763,938.3742240869865,95.97915136349695,41.34415315612337,0.5855080713780749,anxiety
504.3156570797322,11.367980712983723,987.6029900843757,75.67583568970795,16.113763128607253,0.2867165585265229,normal
503.77771843023714,13.128004680471753,991.3723443730786,63.497628743519186,22.104482363259905,0.2529270053850715,normal
525.5022988542086,9.95985365562199,943.4777394699385,64.93357729043245,22.953212837718176,0.20307897833826172,normal
502.2521310272735,11.359129342127362,949.2257081172112,66.33893175582239,10.540282274371396,0.33942716117836186,normal
514.2389071460505,8.97549251850977,938.6021546953444,63.24466811564959,21.21166609895041,0.32409475701039414,normal
528.4871688539014,14.089274534434898,965.865021472128,70.64841364550435,14.744052245939603,0.24591963215079374,normal
511.4284834512744,9.671440020378116,925.8553037803097,71.83394324612651,17.750475778394016,0.2910343983467313,normal
535.8436519969397,9.268631463159622,919.7835403340354,60.064365272085574,12.016526941121828,0.2495119540559773,normal
544.6956291478829,16.58811477319694,974.5130887017267,83.40158937979469,23.72809731391139,0.4470554687135735,stress
524.4741157888952,9.29164713549464,1017.9070817190509,64.1137452439111,12.40037404694791,0.25715166491854125,normal
554.4585444490265,15.355616304667775,1005.3949569823975,86.30016506443494,23.749593363032446,0.4592580006785194,stress
507.9486272613669,14.277357972384976,1006.6551772514614,64.27022732621344,24.460432707482706,0.3220014834158972,normal
516.4153169214252,10.256476914823061,988.5467795844211,79.1614696023876,22.809429504331334,0.34468956357000025,normal
532.3744462191405,10.61316521395827,970.3100163623468,75.1350301137727,19.672489060334705,0.25065447670454305,normal
598.5037228333354,29.079892072187747,985.2833815893512,100.11442960464483,37.53124157597344,0.6183092357871911,anxiety
528.0387652583648,12.874021431146979,929.0956181500762,71.86443140214769,23.792965369840747,0.2778460943383577,normal
512.5742392430531,10.356229947357445,906.4444391727826,75.21981520056188,18.602934271833597,0.3829097327697118,normal
